43691,265,230,181
43702,232,604,214
43712,302,6,211
43722,308,417,269
43733,293,500,242
43743,284,510,241
43754,283,512,247
43765,272,514,217
43776,275,514,210
43822,296,512,263
43834,252,769,231
43844,269,553,228
43855,258,677,590
43866,280,515,200
43876,247,504,194
43887,260,637,190
43897,375,187,192
43908,206,347,215
43919,251,497,210
43929,270,347,211
43939,243,300,274
43949,248,263,237
43959,256,445,749
43970,257,612,199
43980,261,310,241
43990,259,264,242
44000,267,681,254
44010,330,603,212
44020,241,233,204
44031,270,233,182
44041,251,687,209
44051,264,252,194
44061,260,477,191
44072,243,6,186
44082,271,695,269
44092,276,279,251
44103,284,300,206
44113,265,257,268
44123,300,250,245
44134,728,707,212
44144,285,640,262
44154,280,599,219
44164,749,660,204
44175,521,433,199
44186,286,479,150
44196,242,626,183
44206,248,273,219
44216,371,483,165
44226,234,485,208
44236,273,610,224
44246,332,438,180
44256,176,641,170
44266,238,453,192
44276,276,324,181
44291,226,468,191
44307,261,213,192
44323,247,299,233
44339,274,213,199
44355,258,253,179
44371,263,303,218
44386,590,662,213
44402,233,326,234
44418,308,687,201
44434,246,628,241
44450,278,608,236
44466,274,449,191
44481,260,591,217
44497,284,306,217
44513,276,227,189
44529,265,529,223
44545,257,647,218
44560,299,701,232
44576,246,234,189
44592,252,271,181
44608,283,298,201
44624,280,261,214
44639,241,601,174
44654,270,71,167
44671,275,204,228
44687,283,451,226
44703,289,544,196
44719,277,473,155
44734,266,561,171
44750,310,446,713
44766,247,625,160
44782,247,104,202
44798,663,257,610
44813,268,520,184
44829,454,295,480
44845,285,479,196
44861,267,659,200
44877,232,630,353
44893,283,242,134
44908,266,296,742
44924,258,326,159
44940,262,198,183
44956,265,253,143
44972,241,239,209
44987,278,599,190
45003,290,314,348
45019,269,256,147
45035,252,141,198
45051,283,228,223
45067,235,349,192
45082,253,213,219
45098,276,219,182
45114,264,605,179
45130,265,600,217
45146,264,631,198
45161,275,365,177
45177,251,710,168
45193,296,322,202
45209,285,250,182
45225,295,261,190
45241,279,245,184
45256,301,458,236
45272,288,448,246
45288,264,300,222
45304,278,420,189
45320,285,463,176
45335,238,587,196
45351,247,485,195
45367,329,410,207
45383,274,540,183
45399,232,624,199
45415,295,537,149
45430,219,510,189
45446,389,644,182
45462,253,573,167
45478,252,226,206
45494,237,308,161
45509,261,473,212
45525,260,238,180
45541,244,718,219
45557,223,288,190
45573,261,703,227
45589,257,208,199
45604,272,679,219
45620,387,361,188
45636,374,113,267
45652,263,598,203
45668,227,307,223
45683,245,235,181
45699,260,499,172
45715,383,374,216
45731,258,218,179
45745,277,6,210
45762,300,336,201
45778,241,241,170
45794,261,372,177
45810,238,675,181
45826,258,364,146
45841,245,241,181
45857,228,668,775
45873,217,583,200
45889,239,293,201
45905,292,626,180
45921,242,615,226
45936,286,608,189
45952,272,338,183
45968,286,278,196
45984,246,392,222
46000,246,434,155
46015,258,227,162
46031,270,624,192
46047,710,173,325
46063,248,205,283
46079,290,495,200
46095,276,256,176
46110,220,246,551
46126,402,483,275
46142,243,632,151
46158,284,637,156
46174,267,685,225
46189,300,672,162
46205,241,640,206
46221,260,278,167
46237,242,648,207
46253,271,532,192
46269,228,393,188
46284,266,680,193
46300,264,371,211
46316,309,218,255
46332,239,226,183
46348,285,741,238
46363,284,342,247
46379,280,670,235
46395,311,244,193
46411,344,679,233
46427,279,671,223
46443,310,162,196
46458,249,580,229
46474,277,355,192
46490,277,534,195
46506,250,344,169
46522,278,128,159
46537,264,668,698
46553,254,443,159
46569,295,608,172
46585,283,653,156
46601,217,287,147
47720,,175
47730,258,404,223
47740,233,342,201
47750,284,460,214
47760,294,663,215
47771,276,205,234
47781,287,433,148
47791,273,228,157
47801,276,594,170
47811,302,546,201
47821,264,398,146
47831,285,309,162
47842,273,661,166
47853,281,416,202
47863,225,495,186
47873,567,384,144
47883,238,509,559
47893,410,464,364
47904,261,308,379
47914,350,334,431
47924,281,527,180
47934,510,229,150
47944,263,680,297
47954,294,659,715
47964,290,566,364
47975,263,291,232
47985,275,672,215
47995,283,294,273
48005,318,42,527
48015,340,530,782
48025,286,162,237
48035,267,578,373
48046,264,651,194
48056,247,654,173
48066,270,576,184
48076,250,445,184
48086,236,454,181
48096,256,683,411
48107,248,6,734
48117,344,247,271
48127,255,399,221
48137,278,266,200
48148,282,630,150
48158,256,198,192
48169,270,196,194
48179,285,593,208
48189,430,581,193
48200,278,482,181
48210,542,584,545
48220,323,559,405
48230,222,490,218
48240,231,510,204
48250,314,233,171
48260,262,668,192
48270,287,229,211
48280,290,606,210
48293,286,406,224
48309,234,206,211
48325,266,626,200
48341,280,167,204
48356,250,231,206
48372,291,233,212
48388,253,341,220
48404,268,642,174
48420,252,464,210
48435,280,158,196
48451,268,701,146
48467,257,415,180
48483,269,677,185
48499,298,557,171
48515,240,255,164
48530,272,233,161
48546,239,258,191
48562,232,462,214
48578,282,134,199
48594,240,280,191
48610,234,211,192
48625,301,414,228
48641,256,544,212
48657,290,233,200
48673,299,513,244
48689,271,295,252
48704,294,408,269
48720,333,604,247
48736,311,632,230
48752,287,380,242
48768,252,640,194
48784,292,628,166
48799,256,582,177
48815,263,491,494
48831,244,281,171
48847,259,535,140
48863,294,661,225
48878,255,205,255
48894,292,464,234
48910,280,251,217
48926,294,448,491
48942,279,184,186
48958,284,241,196
48973,249,434,168
48989,285,608,296
49005,289,380,161
49021,267,433,213
49036,238,72,206
49052,275,191,201
49068,246,349,194
49084,266,579,180
49100,215,607,175
49116,204,364,189
49132,310,414,205
49147,243,211,197
49163,267,439,174
49179,261,246,237
49195,269,642,203
49211,292,179,195
49226,267,340,416
49242,769,701,198
49258,255,516,202
49274,252,348,215
49290,286,503,207
49306,288,297,212
49321,235,214,185
49337,280,663,225
49353,262,233,190
49369,245,553,201
49385,264,622,184
49400,248,393,266
49416,253,661,173
49432,235,486,192
49448,256,329,178
49464,264,713,158
49480,301,151,200
49495,273,671,193
49511,258,279,178
49527,289,449,206
49543,301,674,184
49559,275,417,199
49574,251,242,183
49590,238,230,122
49606,262,418,170
49622,332,648,186
49638,254,445,206
49653,250,168,178
49669,258,207,132
49685,263,697,229
49701,246,599,174
49715,247,6,379
49732,325,290,299
49748,305,220,206
49764,281,749,166
49780,272,675,253
49796,303,527,198
49812,286,245,210
49827,320,566,228
49843,330,649,205
49859,258,604,211
49875,277,635,211
49891,629,294,350
49906,237,391,182
49921,249,83,184
49938,321,358,587
49954,231,556,140
49970,266,643,178
49986,519,393,197
50001,263,536,671
50017,250,435,418
50033,249,157,189
50049,263,603,157
50065,244,301,214
50080,270,201,166
50096,285,540,318
50112,283,565,206
50128,295,677,215
50144,579,473,424
50160,285,675,221
50175,256,434,229
50191,241,424,685
50207,241,191,150
50223,252,597,165
50239,255,248,151
50254,259,438,194
50270,351,676,181
50286,257,244,207
50302,286,299,214
50318,300,708,236
50334,311,257,233
50349,302,396,230
50365,272,110,439
50381,269,407,223
50397,287,651,227
50413,266,279,214
50428,293,356,201
50444,298,228,182
50460,273,577,191
50476,287,435,225
50492,274,391,143
50508,353,619,183
50523,262,574,162
50539,222,260,164
50555,291,422,183
50571,296,493,149
50587,271,450,188
50602,280,278,225
50618,267,663,229
50634,233,204,205
50650,261,437,203
50666,274,200,213
50681,280,449,213
50697,289,211,381
50713,276,278,209
50729,267,677,746
50745,288,654,233
50761,240,643,212
50776,243,325,190
50792,239,461,187
50808,277,466,684
50824,220,265,205
50840,245,628,197
50855,274,326,248
50871,444,652,242
50887,282,342,456
50903,273,611,262
50919,256,329,220
50935,307,649,606
50950,247,601,246
50966,267,681,225
50982,231,645,190
50998,251,642,176
51014,230,387,162
51029,289,577,647
51045,260,634,179
51061,272,588,244
51077,276,641,170
51093,243,366,235
51109,276,250,213
51124,276,651,191
51140,276,213,230
51156,237,657,272
51172,248,339,175
51188,276,638,453
51203,256,733,232
51219,260,342,199
51235,268,733,221
51251,227,224,399
51267,269,202,159
51283,233,562,194
51298,266,585,178
51314,224,218,166
51330,279,260,180
51346,294,244,138
51362,266,624,188
51377,269,290,167
51393,270,408,201
51409,266,557,170
51425,300,201,184
51441,306,489,196
51457,322,214,243
51472,274,269,216
51488,272,203,258
51504,338,649,204
51520,277,299,211
51536,281,336,164
51551,259,242,199
51567,315,617,190
51583,250,375,172
51599,257,433,195
51615,532,416,769
51631,248,323,168
51647,295,175,176
51662,263,610,188
51678,310,372,290
51694,347,544,239
51710,328,638,515
51726,268,668,188
51741,274,194,214
51757,724,567,177
51773,299,612,190
51789,315,224,234
51805,295,172,232
51820,521,710,236
51836,308,287,206
51852,322,211,199
51868,270,239,195
51884,397,284,194
51900,311,288,232
51915,297,213,245
51931,267,258,257
51947,440,461,270
51963,326,688,296
51979,271,430,207
51994,304,278,246
52010,350,564,221
52026,314,591,199
52042,258,234,190
52058,276,215,188
52074,379,354,194
52089,250,630,183
52105,270,215,204
52121,249,465,154
52137,266,148,163
52153,235,483,168
52168,318,608,167
52184,266,326,218
52200,278,380,154
52216,245,370,165
52232,239,191,155
52248,272,401,185
52263,265,256,188
52279,247,217,256
52295,274,673,212
52311,280,244,210
52327,277,196,493
52343,295,642,327
52358,252,661,161
52374,236,220,183
52390,324,604,134
52406,198,674,195
52422,444,210,209
52437,218,274,224
52453,756,639,166
52469,273,407,195
52485,213,258,163
52501,270,242,195
52516,218,441,208
52532,312,487,324
52548,214,341,214
52564,276,606,182
52580,346,363,222
52596,417,333,424
52611,315,209,264
52627,289,574,204
52643,301,646,213
52659,302,463,214
52675,298,484,648
52690,280,459,206
52706,283,260,173
52722,261,155,183
52738,303,576,229
52754,290,689,261
52770,232,322,222
52785,280,708,208
52801,226,241,400
52817,256,250,195
52833,233,228,204
52849,235,338,151
52864,251,203,189
52880,258,213,382
52896,289,283,114
52912,644,689,156
52928,282,388,161
52944,253,317,132
52959,250,271,232
52975,238,425,671
52991,277,324,227
53007,262,416,173
53023,274,645,673
53036,346,6,201
53054,307,303,306
53070,323,676,205
53086,212,250,121
53102,285,236,192
53117,274,209,258
53133,358,342,177
53149,450,643,198
53165,287,403,226
53181,243,349,226
53197,268,522,217
53212,277,492,226
53228,267,565,221
53244,298,535,201
53260,302,650,220
53276,301,667,481
53291,352,231,186
53307,247,237,398
53323,289,371,190
53339,317,523,202
53355,315,302,198
53371,262,246,232
53386,316,359,157
53402,530,624,171
53416,249,6,237
53434,319,373,271
53450,265,216,133
53465,265,735,146
53481,282,281,202
53497,250,247,148
53513,276,372,220
53529,276,203,174
53544,249,314,121
53560,226,258,171
53576,303,338,214
53592,223,617,181
53608,738,565,176
53624,227,658,211
53639,237,274,219
53655,264,434,190
53671,272,246,204
53687,293,602,252
53703,261,308,244
53718,416,381,232
53734,298,229,185
53750,270,657,231
53766,483,618,680
53782,219,335,182
53798,205,641,521
53813,600,664,181
53829,233,537,277
53845,360,612,160
53861,312,292,207
53877,326,565,229
53892,260,408,136
53908,216,564,150
53924,253,655,164
53940,221,529,565
53956,247,492,215
53970,209,498,77
53987,249,323,234
54003,260,264,313
54019,239,480,336
54035,282,276,196
54051,274,197,185
54066,274,364,165
54082,373,687,214
54098,262,253,163
54114,238,381,191
54130,254,446,205
54145,266,261,256
54161,275,226,177
54177,257,628,188
54193,329,613,398
54209,249,457,198
54225,260,529,149
54240,259,637,210
54256,310,500,201
54272,273,435,236
54288,228,630,185
54304,347,241,192
54319,292,154,223
54335,344,369,199
54351,350,264,227
54367,287,308,203
54383,266,565,142
54399,219,474,177
54414,249,559,141
54430,242,673,159
54446,252,224,180
54462,275,351,211
54478,253,322,125
54493,237,466,251
54509,275,684,188
54525,303,236,223
54541,282,696,278
54557,291,374,273
54573,279,312,275
54588,277,614,234
54604,251,573,655
54620,253,475,159
54636,243,620,186
54652,274,247,225
54667,253,236,185
54683,271,493,170
54699,301,144,280
54715,320,284,257
54731,329,650,679
54747,588,615,266
54762,374,425,676
54778,256,580,728
54794,217,460,237
54810,606,628,436
54826,330,602,238
54841,363,611,215
54857,293,370,222
54873,212,641,194
54889,298,506,597
54905,250,625,721
54921,254,693,185
54936,242,589,630
55585,270,400,211
55601,292,193,210
55617,241,543,216
55632,264,570,248
55648,310,632,282
55664,284,292,278
55680,274,633,242
55696,320,668,284
55712,307,612,300
55727,311,428,312
55743,345,479,258
55759,299,573,265
55775,302,516,267
55791,302,470,393
55806,505,628,374
55822,428,440,671
55838,222,466,682
55854,369,567,313
55870,624,300,160
55886,214,330,243
55901,194,368,283
55917,289,659,561
55933,443,630,698
55949,254,628,136
55965,225,123,216
55980,276,426,262
55996,681,500,380
56012,279,366,209
56028,301,525,245
56044,269,450,204
56060,252,457,276
56075,298,178,233
56091,222,536,221
56107,318,663,184
56123,737,563,646
56139,256,408,199
56154,284,354,177
56170,304,528,165
56186,264,604,171
56202,398,628,259
56218,250,132,199
56234,205,401,233
56249,208,534,218
56265,334,295,237
56281,291,124,232
56297,318,559,231
56313,268,598,223
56328,573,334,227
56344,250,517,234
56360,223,219,204
56376,264,328,181
56392,243,166,211
56408,269,619,211
56423,250,640,256
56439,274,268,176
56455,323,735,257
56471,285,478,169
56487,259,250,227
56502,370,692,235
56518,244,405,184
56534,204,578,168
56550,301,592,218
56566,259,618,180
56582,238,566,233
56597,317,410,230
56613,294,376,269
56629,307,519,228
56645,220,163,259
56661,196,642,250
56676,247,381,236
56692,259,485,189
56708,258,535,191
56724,251,635,192
56740,274,281,137
56756,250,143,533
56771,241,503,712
56787,247,408,259
56803,311,459,572
56819,269,450,465
56835,250,262,196
56850,452,252,317
56866,295,560,214
56882,256,325,193
56898,272,589,190
56914,395,364,194
56930,310,651,210
56945,448,335,219
56961,284,357,170
56977,183,458,220
56993,242,434,210
57009,356,416,262
57024,230,619,496
57040,281,548,377
57056,231,648,280
57072,551,417,196
57088,226,605,194
57104,259,629,185
57119,239,633,474
57135,272,616,353
57151,246,251,270
57167,272,283,343
57183,273,368,220
57198,272,235,204
57214,225,683,187
57230,364,266,174
57246,301,556,196
57262,303,397,180
57278,236,521,190
57293,270,239,145
57309,230,679,228
57325,288,577,224
57341,175,457,207
57357,352,589,189
57372,235,485,172
57388,254,531,228
57404,254,383,177
57420,264,219,196
57436,268,251,165
57452,241,639,227
57467,295,226,215
57483,250,281,152
57499,293,494,153
57515,292,682,174
57531,253,267,152
57546,259,218,139
57562,229,247,160
57578,261,247,206
57594,250,316,202
57610,258,649,220
57625,337,231,216
57641,253,509,183
57657,271,731,218
57673,266,517,197
57689,239,571,179
57705,328,567,197
57720,483,376,371
57736,266,230,203
57752,269,266,186
57768,295,565,737
57784,260,286,181
57800,283,325,186
57815,275,253,191
57831,210,474,211
57847,259,679,175
57863,235,494,212
57879,268,657,264
57894,266,620,238
57910,194,516,178
57926,259,222,207
57942,196,344,239
57958,347,606,250
57974,256,259,166
57989,585,333,429
58005,279,620,187
58021,255,706,731
58037,298,406,204
58053,660,353,350
58068,441,506,198
58084,253,542,190
58100,241,544,179
58116,286,459,154
58132,252,624,171
58147,243,310,174
58163,254,680,155
58179,313,496,699
58195,245,277,173
58211,233,278,183
58227,513,544,179
58242,320,256,198
58258,282,240,202
58274,291,231,242
58290,270,239,216
58306,300,288,217
58321,253,701,182
58337,274,396,196
58353,431,672,229
58369,258,567,182
58385,252,705,228
58401,270,310,229
58416,306,224,221
58432,266,331,175
58448,286,457,186
58464,265,675,186
58480,256,517,158
58495,253,638,222
58511,256,479,162
58527,269,481,179
58543,287,252,191
58559,238,641,148
58575,246,210,226
58590,272,517,167
58606,250,203,214
58622,262,321,190
58638,286,559,181
58654,274,684,162
58669,297,615,234
58685,279,668,257
58701,237,675,735
58717,247,290,172
58733,289,318,284
58749,322,460,152
58764,256,586,188
58780,229,355,221
58796,365,558,212
58812,400,364,223
58828,226,708,237
58843,270,722,269
58859,295,316,186
58875,262,272,201
58891,383,662,185
58907,291,333,241
58923,266,635,172
58938,326,653,197
58954,300,370,194
58970,420,587,218
58986,322,580,214
59002,299,465,228
59017,249,333,370
59033,244,660,160
59049,422,374,204
59065,286,187,244
59081,275,657,132
59097,271,615,150
59112,309,233,193
59128,265,598,201
59144,302,659,188
59160,267,378,178
59176,256,667,145
59191,256,218,218
59207,241,530,187
59223,251,395,200
59239,288,528,212
59255,290,231,165
59271,262,578,148
59286,297,558,159
59302,270,412,174
59318,228,643,199
59334,263,154,187
59350,237,419,203
59365,258,526,208
59381,289,258,199
59397,251,224,218
59413,289,706,226
59429,308,701,229
59445,322,556,275
59460,261,245,223
59476,272,375,192
59492,292,336,225
59508,265,390,182
74532,290,6,133
75181,428,6,133
75199,334,582,244
134112,288,326,150
134122,661,674,174
134132,283,657,165
134142,251,590,149
134153,270,430,776
134163,294,526,195
134173,290,481,160
134184,261,237,223
134195,345,438,164
134205,314,557,146
134235,290,574,180
134759,86,188
134769,288,665,225
134779,299,528,568
134789,316,263,131
134800,312,250,218
134810,303,433,166
134820,272,506,172
134831,283,332,164
134841,300,385,175
134852,292,290,160
134863,302,556,164
134874,290,396,173
134945,319,539,170
134955,333,661,179
134965,262,300,173
134975,290,98,188
134985,513,251,242
134995,636,617,772
135006,268,390,154
135017,253,318,193
135027,293,510,215
135037,293,570,173
135048,291,576,792
135058,276,284,159
135068,285,695,155
135078,281,340,447
135088,303,680,170
135099,314,219,151
135110,307,388,453
135120,425,426,171
135130,302,580,753
135140,304,395,192
135151,321,465,158
135161,276,677,200
135171,315,316,165
135181,286,486,187
135191,298,661,193
135201,286,407,177
135211,306,365,146
135221,301,194,303
135231,320,411,160
135241,295,292,234
135251,407,237,166
135261,300,335,402
135271,288,648,164
135281,290,275,301
135291,345,681,139
135301,291,195,199
135311,291,203,153
135321,311,605,159
135331,265,193,360
135341,285,433,149
135351,300,270,166
135361,339,280,226
135371,319,612,187
135381,303,438,208
135391,304,270,210
135401,300,212,242
135411,296,527,722
135421,284,423,172
135431,294,661,191
135441,269,371,182
135451,298,403,188
135461,307,298,150
135471,274,220,137
135481,284,602,165
135495,306,313,192
135511,284,741,169
135527,314,281,207
135542,322,710,155
135558,338,670,142
135573,314,74,160
135590,332,240,257
135606,305,704,164
135621,299,703,815
135637,273,699,195
135653,278,683,471
135669,308,126,257
135685,288,429,164
135701,273,186,267
135716,632,249,124
135731,273,77,197
135748,306,243,198
135764,351,715,134
135780,290,587,500
135795,273,544,163
135811,295,566,152
135827,295,274,503
135843,290,746,219
135859,302,346,210
135875,332,672,206
135890,322,193,197
135906,278,228,170
135922,340,651,449
135938,305,336,122
135954,290,571,172
135969,306,272,274
135985,273,250,189
136001,367,635,662
136017,323,630,176
136033,305,226,183
136049,379,647,156
136064,303,415,309
136080,343,514,165
136096,284,298,485
136112,320,497,160
136128,303,430,213
136143,328,352,116
136158,305,403,92
136175,346,298,185
136191,288,302,151
136207,294,361,153
136222,299,467,141
136238,310,558,172
136254,274,359,208
136270,297,242,167
136286,311,666,145
136302,289,219,371
136317,313,462,149
136333,276,665,153
136349,301,215,164
136365,313,242,137
136381,282,662,756
136396,294,504,731
136412,323,527,183
136428,296,640,160
136444,309,626,168
136460,293,332,187
136476,313,508,156
136491,297,185,148
136507,283,657,188
136523,295,655,156
136539,312,596,171
136555,316,632,186
136571,310,468,178
136586,301,656,170
136602,319,305,142
136618,308,225,104
136634,314,663,161
136650,277,681,149
136665,305,343,135
136681,247,500,719
136697,303,633,776
136713,295,217,378
136729,298,710,549
136745,281,625,145
136760,336,727,538
136776,298,215,184
136792,286,260,159
136808,314,268,252
136823,309,288,98
136839,315,346,315
136855,266,222,230
136871,240,220,120
136887,478,588,159
136903,283,709,797
136919,297,656,139
136934,306,325,571
136950,284,664,775
136966,275,206,720
136982,311,253,770
136998,293,424,122
137013,294,364,117
137029,295,553,147
137045,288,180,148
137061,307,228,161
137077,480,668,139
137093,308,682,117
137108,244,492,327
137124,278,224,112
137140,279,240,162
137156,282,650,164
137172,262,453,189
137187,599,567,272
137300,272,230,173
137310,305,313,137
137320,280,567,159
137330,280,622,129
137340,298,267,167
137350,292,249,145
137360,291,747,160
137370,313,367,174
137380,293,355,112
137390,270,240,71
137400,341,202,112
137462,320,235,117
137472,296,706,157
137483,311,201,158
137493,306,292,148
137503,295,285,142
137627,299,655,168
137637,308,147,210
137647,286,383,153
137657,280,297,149
137668,326,253,158
137679,299,226,160
137690,308,231,155
137701,310,566,628
137711,333,667,174
137722,329,215,127
137733,294,402,147
137743,274,292,220
137753,304,389,178
137763,280,333,136
137774,275,717,182
137784,270,528,152
137794,311,498,142
137804,310,329,136
137814,310,244,235
137824,289,649,136
137834,297,151,122
137844,284,199,765
137855,293,209,143
137866,295,338,235
137876,301,553,690
137887,334,273,122
137897,294,707,241
137908,301,438,179
137918,482,411,130
137928,292,631,749
137938,327,224,156
137948,310,289,170
137962,291,457,413
137978,306,162,135
137994,433,397,161
138010,370,652,206
138026,271,425,809
138042,290,600,187
138057,312,650,176
138074,297,228,154
138089,298,294,139
138105,293,286,153
138121,339,301,182
138136,331,652,161
138152,321,269,205
138168,283,446,173
138184,314,329,146
138200,292,691,564
138216,315,615,139
138231,320,694,169
138247,320,746,643
138263,265,699,157
138279,307,320,232
138295,329,403,138
138310,321,377,166
138326,335,716,178
138342,322,351,139
138358,283,215,170
138374,308,238,146
138390,301,698,159
138405,323,241,144
138421,278,347,168
138437,307,309,158
138453,307,275,151
138469,287,310,146
138484,298,642,344
138500,306,248,126
138516,273,365,151
138532,278,680,180
138548,321,359,312
138564,315,266,145
138579,286,464,162
138595,300,610,177
138611,274,307,178
138627,290,247,133
138643,305,365,121
138658,292,524,120
138674,284,247,163
138690,325,321,177
138706,313,250,205
138722,340,566,204
138738,289,386,141
138753,308,437,607
138769,279,229,176
138785,271,487,147
138801,294,554,178
138817,304,241,133
138832,297,428,800
138848,302,589,173
138864,298,368,141
138880,293,669,157
138896,504,243,541
138912,332,290,136
138927,283,633,744
138943,289,464,141
138959,301,727,141
138975,273,342,334
138991,595,365,153
139006,429,658,561
139022,286,692,130
139038,296,401,483
139054,287,690,472
139070,284,247,165
139086,303,671,101
139101,293,615,434
139117,304,374,489
139133,327,317,157
139149,297,216,149
139165,316,308,240
139180,301,642,174
139196,328,259,165
139212,285,681,172
139228,317,369,482
139244,314,250,171
139260,319,321,162
139275,330,250,117
139291,296,661,827
139307,320,217,103
139323,302,220,136
139339,318,200,171
139354,296,265,163
139370,294,525,171
139386,280,345,463
139402,281,355,149
139418,298,214,341
139434,318,214,118
139449,315,599,121
139465,312,221,143
139481,315,512,176
139497,275,459,180
139513,293,601,548
139528,501,371,162
139544,289,439,172
139560,307,570,183
139576,314,699,119
139592,309,615,140
139608,313,606,164
139623,286,469,202
139639,313,435,165
139655,311,459,130
139671,290,255,195
139687,309,265,164
139702,284,670,772
139718,313,354,139
139734,311,315,139
139750,279,231,660
139766,305,271,124
139782,311,541,127
139797,324,377,323
139813,323,274,154
139829,315,536,128
139845,309,667,191
139861,337,307,301
139876,300,576,213
139892,404,679,184
139908,301,700,162
139924,274,658,189
139940,337,560,185
139956,302,708,771
139971,319,431,147
139987,320,386,119
140003,297,570,175
140019,320,324,303
140035,332,688,259
140050,312,259,172
140066,302,306,136
140082,304,688,243
140098,355,287,601
140114,294,399,161
140129,360,433,773
140145,307,262,102
140161,326,521,180
140177,311,215,130
140193,332,524,110
140209,337,211,174
140224,328,650,153
140240,325,211,160
140256,339,183,149
140272,290,298,155
140288,288,563,163
140303,313,198,121
140319,322,671,132
140335,308,260,147
140351,330,400,151
140367,314,542,250
140383,284,316,131
140398,296,528,180
140414,292,391,227
140430,296,626,756
140446,319,656,151
140462,298,223,114
140477,306,385,156
140493,307,447,145
140509,326,311,119
140525,299,251,168
140541,295,235,164
140557,288,544,224
140572,292,668,767
140588,294,671,352
140604,308,319,139
140620,285,233,447
140636,326,658,750
140651,283,432,183
140667,331,631,130
140683,288,201,173
140699,295,718,149
140715,293,355,153
140731,294,634,149
140746,301,491,692
140761,321,97,246
140778,347,366,310
140794,308,136,137
140810,280,383,592
140825,316,145,410
140841,308,477,473
140857,295,655,190
140873,306,511,146
140889,302,658,734
140905,314,497,130
140920,296,612,164
140936,324,139,264
140952,303,411,186
140968,296,159,187
140984,284,522,168
140999,308,479,501
141015,326,611,134
141031,308,692,581
141047,325,440,152
141063,302,404,161
141078,319,491,180
141094,309,557,163
141110,309,711,204
141126,329,648,142
141142,356,671,138
141158,278,483,181
141173,317,330,157
141189,310,648,169
141205,322,372,159
141221,323,363,149
141237,300,531,188
141252,334,522,241
141268,329,321,146
141284,326,216,129
141300,303,171,131
141316,314,497,151
141332,305,636,175
141347,295,216,160
141363,330,589,140
141379,298,461,194
141536,304,639,179
141546,295,244,148
141556,319,652,205
141566,317,391,204
141576,309,679,158
141586,290,274,145
141596,292,345,176
141606,339,706,186
141616,342,213,205
141626,304,581,183
141636,325,705,216
141646,330,569,192
141656,352,635,237
141667,327,484,147
141677,309,474,249
141861,330,578,199
141871,337,402,199
141882,316,308,208
141893,324,333,708
141903,276,344,192
141913,290,267,144
141924,287,582,143
141934,290,640,160
141944,325,224,135
141954,314,507,150
141965,314,210,121
141975,290,187,153
141986,318,563,151
141996,298,589,503
142006,296,576,265
142016,329,258,158
142026,289,650,124
142037,299,360,190
142047,338,321,164
142057,711,601,161
142067,302,493,196
142078,325,658,228
142088,322,306,283
142098,329,671,235
142108,318,645,204
142118,328,467,190
142128,324,206,207
142139,333,299,206
142149,357,284,218
142159,326,301,201
142169,312,473,195
142179,305,338,160
142448,317,743,157
142458,28,526,265
142468,303,309,164
142478,325,674,189
142488,305,678,730
142498,334,673,152
142508,308,305,270
142518,299,357,140
142528,299,546,199
142538,299,370,168
142548,293,230,186
142558,321,151,198
142568,445,661,180
142687,
142697,348,538,188
142707,44,448,132
142718,316,252,192
142729,298,359,206
142740,322,375,121
142751,342,329,111
142761,329,449,137
142772,308,320,161
142782,307,539,189
142792,315,197,181
142802,330,286,182
142812,299,369,181
142822,316,213,163
142833,304,490,567
142844,335,484,160
142856,333,656,195
142866,336,370,161
142876,296,279,160
142886,318,597,199
142896,290,663,179
142907,316,673,169
142917,304,702,215
142927,312,376,112
142937,320,271,138
142947,303,297,131
142957,321,634,777
142967,306,411,170
142978,323,689,145
142988,289,369,172
142998,323,408,195
143008,301,534,194
143018,322,212,156
143028,286,187,158
143038,322,401,613
143049,322,252,142
143059,294,367,307
143069,308,673,143
143079,293,235,161
143090,304,714,625
143100,333,419,148
143110,297,384,156
143120,347,263,193
143130,332,666,202
143140,332,6,554
143151,352,191,250
143161,338,686,183
143171,323,90,299
143181,326,296,231
143191,330,394,212
143201,286,199,402
143211,294,383,205
143221,353,364,193
143231,345,380,191
143241,321,667,183
143251,307,487,122
143261,315,642,175
143277,287,516,169
143293,288,627,207
143309,296,453,173
143325,301,707,168
143340,317,228,175
143356,322,365,149
143372,316,660,164
143388,322,325,191
143404,311,335,172
143419,291,588,155
143435,301,207,179
143451,296,539,130
143467,287,516,232
143483,314,268,109
143498,321,693,108
143514,297,316,157
143530,301,239,171
143546,285,345,179
143562,312,247,170
143578,310,416,242
143593,323,482,209
143609,318,116,218
143625,364,581,222
143641,345,198,204
143657,327,650,182
143672,327,241,242
143688,330,640,218
143704,338,589,147
143720,417,392,187
143736,340,362,203
143752,319,371,160
143767,605,303,256
143783,328,465,208
143799,324,323,230
143815,324,692,199
143831,335,277,186
143846,338,690,231
143862,330,258,178
143878,336,257,291
143894,363,114,179
143910,338,634,751
143926,369,266,179
143941,365,340,210
143957,298,719,192
143973,299,224,182
143989,342,286,582
144005,361,563,123
144020,320,329,154
144036,510,271,196
144052,353,283,155
144068,310,353,664
144084,325,607,166
144100,348,332,198
144115,317,528,451
144131,325,664,741
144147,307,559,486
144163,309,449,182
144178,451,58,231
144194,335,488,244
144210,318,684,210
144226,323,687,187
144242,338,206,208
144258,307,256,203
144274,327,604,216
144289,339,189,181
144305,306,231,191
144321,318,501,205
144337,324,219,204
144353,295,223,165
144368,280,563,751
144384,279,362,141
144400,305,271,150
144416,319,278,687
144432,333,650,381
144448,320,184,132
144463,314,344,174
144479,336,596,205
144495,308,694,727
144511,325,681,212
144527,327,451,189
144542,339,216,201
144558,323,493,209
144574,321,565,153
144590,284,631,127
144606,314,284,161
144621,307,259,179
144637,342,373,205
144653,326,659,512
144669,313,561,133
144685,332,382,155
144701,304,636,181
144716,311,674,772
144732,298,348,167
144748,320,625,215
144764,316,231,117
144780,309,385,363
144795,317,292,204
144811,314,286,175
144827,296,717,155
144843,296,415,167
144859,300,220,298
144875,324,192,286
144890,308,488,133
144906,331,313,170
144956,304,652,453
144967,301,359,173
144978,299,254,187
144988,314,648,598
144998,288,630,187
145008,305,654,173
145019,323,185,170
145033,279,454,783
145049,324,210,152
145065,309,659,155
145141,306,689,188
145151,305,284,195
145161,320,576,183
145171,287,688,703
145181,305,595,151
145191,314,452,765
145202,314,402,174
145212,340,551,486
145223,333,244,212
145233,316,181,311
145243,302,530,512
145254,315,316,166
145270,320,238,213
145286,319,580,146
145342,334,86,166
145352,345,421,173
145362,319,675,187
145372,298,704,186
145382,334,578,167
145393,340,249,176
145403,334,248,178
145423,319,391,175
145433,306,243,180
145444,335,704,162
145460,331,200,354
145476,315,396,168
145491,340,706,164
145507,338,256,151
145523,310,658,780
145539,338,207,169
145555,303,358,146
145570,333,702,687
145586,319,370,180
145602,303,216,180
145618,299,525,156
145634,303,457,155
145650,326,337,166
145665,333,480,177
145681,525,623,766
145697,319,322,193
145713,319,651,184
145729,335,307,143
145744,296,293,161
145761,325,547,175
145776,336,203,154
145792,338,327,318
145808,309,520,146
145823,308,644,84
145839,348,226,140
145855,292,459,129
145871,334,685,715
145887,311,209,199
145903,329,256,137
145918,306,212,124
145934,333,333,144
145950,319,239,212
145966,312,678,163
145982,318,311,178
145998,324,343,243
146013,289,450,167
146029,290,425,173
146045,312,256,176
146061,294,646,191
146077,290,300,208
146092,323,672,169
146108,343,513,330
146124,722,700,325
146140,316,423,153
146156,317,464,168
146172,316,284,226
146187,324,657,182
146203,330,184,158
146219,284,213,146
146235,325,691,180
146251,321,264,154
146266,341,69,261
146282,445,340,247
146298,288,466,142
146314,304,591,234
146330,320,504,210
146345,324,433,161
146361,286,579,198
146377,320,673,194
146393,327,604,724
146408,316,59,185
146424,335,552,827
146440,311,290,135
146456,352,204,173
146472,336,258,153
146488,326,328,173
146504,297,652,239
146519,303,307,197
146535,303,674,205
146551,325,435,198
146567,299,685,123
146583,321,319,372
146598,311,331,209
146614,318,302,175
146630,325,325,167
146646,323,348,191
146662,318,660,187
146678,336,663,189
146693,302,475,193
146709,333,414,140
146725,324,158,150
146741,325,470,164
146757,311,539,614
146772,410,220,173
146788,313,550,128
146803,321,82,208
146820,363,201,224
146836,347,492,111
146851,325,655,702
146867,353,499,207
146883,314,669,126
146899,334,230,140
146915,325,457,174
146931,324,651,126
146946,393,427,106
146962,313,273,160
146978,309,685,756
146994,305,357,166
147010,334,448,180
147025,425,680,190
147041,310,608,162
147057,297,630,176
147073,323,712,157
147089,312,679,202
147105,310,272,183
147120,325,260,168
147136,305,323,114
147152,296,253,186
147168,357,226,724
147184,296,702,149
147199,351,205,213
147215,311,688,165
147231,317,320,182
147247,318,340,187
147263,318,234,166
147279,294,606,143
147294,306,487,138
147310,302,693,184
147326,322,680,187
147342,308,646,156
147358,290,706,191
147373,306,647,745
147389,315,256,221
147405,301,556,176
147421,310,301,186
147437,307,233,213
147453,310,228,133
147468,315,372,121
147484,286,409,131
147500,338,591,160
147516,314,179,114
147532,313,247,143
147547,300,296,136
147563,302,497,184
147579,289,392,388
147595,306,289,175
147611,306,564,166
147627,315,646,151
147699,316,376,542
147709,321,644,160
147720,314,380,170
147731,327,327,182
147741,319,416,109
147751,300,538,174
147762,324,232,148
147773,288,563,188
147783,311,470,170
147793,307,703,170
147804,417,721,234
147816,312,281,117
147879,323,369,144
147890,289,304,176
147900,338,736,220
147911,339,505,155
147922,298,326,750
147933,323,277,185
147943,309,691,368
147953,323,522,231
148011,334,648,98
148021,358,510,217
148033,325,294,187
148044,307,411,166
148055,315,619,553
148066,305,250,204
148076,317,634,183
148086,335,444,205
148097,333,644,336
148108,309,521,141
148118,334,359,271
148133,329,233,114
148149,302,637,410
148164,315,404,146
148180,327,239,151
148196,298,565,167
148212,325,229,142
148228,322,282,152
148243,318,552,133
148259,332,344,162
148275,326,668,156
148291,328,673,158
148307,339,392,182
148323,338,335,126
148338,327,481,167
148354,332,249,134
148370,315,231,193
148386,316,266,140
148402,298,229,182
148417,303,202,204
148433,357,566,259
148449,329,468,352
148465,324,665,236
148481,332,652,143
148497,348,242,150
148512,308,567,197
148528,328,258,163
148544,312,309,207
148560,309,400,198
148576,343,181,194
148591,300,183,183
148607,329,380,177
148623,343,481,185
148639,349,647,805
148655,339,555,160
148671,334,153,132
148686,336,609,294
148702,339,555,141
148718,317,332,201
148734,451,497,767
148750,299,469,530
148765,318,667,140
148781,362,654,194
148797,305,674,124
148813,360,578,159
148829,284,276,174
148845,293,460,159
148859,304,95,172
148876,331,651,798
148892,335,311,149
148908,306,444,182
148924,321,396,177
148939,324,663,149
148955,328,629,381
148971,327,700,732
148987,318,301,479
149003,313,731,450
149019,328,205,163
149034,325,650,212
149050,315,304,176
149066,336,636,201
149082,524,353,170
149098,318,389,182
149113,315,702,446
149129,323,285,280
149145,349,257,167
149161,336,217,117
149177,320,298,189
149193,347,424,847
149208,337,370,366
149224,338,357,167
149240,352,393,144
149256,331,705,752
149272,320,283,142
149287,340,566,182
149303,325,250,166
149319,333,670,568
149335,338,575,154
149351,307,646,135
149367,322,660,147
149382,333,269,142
149398,320,673,136
149414,330,662,187
149430,317,686,151
149446,335,650,155
149461,321,190,142
149477,324,184,120
149493,313,491,686
149509,321,402,387
149525,322,667,200
149541,313,206,212
149556,292,670,499
149572,338,259,109
149588,328,608,108
149604,347,183,141
149620,354,294,118
149636,296,685,162
149651,314,346,252
149667,325,571,144
149683,314,624,193
149699,344,413,783
149715,340,399,756
149730,316,296,154
149746,312,455,209
149762,303,214,154
149778,318,224,135
149794,306,668,145
149810,443,393,156
149825,321,193,199
149841,337,365,180
149857,331,487,210
149873,305,633,796
149889,341,515,300
149904,340,186,143
149920,333,381,757
149936,309,304,174
149952,310,551,705
149968,317,686,223
149984,315,676,176
149999,327,215,179
150015,350,541,791
150031,323,319,180
150047,322,631,540
150063,350,686,180
150078,555,580,355
150094,293,554,189
150110,320,465,745
150126,313,602,150
150142,323,436,308
150158,327,540,155
150174,339,300,167
150204,308,251,178
150214,311,463,181
150224,717,644,423
150237,325,265,170
150253,309,401,328
150299,326,571,149
150309,340,502,136
150319,338,390,151
150329,315,772,194
150339,315,306,179
150350,357,222,179
150363,309,718,139
150379,318,106,415
155801,,61
155811,
155821,364,656,83
155831,7,447,769
155841,323,710,662
155851,331,612,392
155861,325,607,743
155871,329,227,82
155881,346,716,676
155891,329,681,716
155902,334,218,43
155912,361,494,555
155922,320,196,36
155932,354,216,762
155942,338,441,651
155952,334,288,28
155962,364,230,30
155973,545,301,156
155983,330,396,703
155993,351,646,35
156003,360,165,8
156013,391,484,226
156023,354,217,691
156033,332,662,177
156044,329,433,8
156054,380,551,749
156064,344,350,177
156074,329,635,249
156084,340,218,47
156095,382,545,691
156105,327,656,285
156115,332,252,12
156125,355,265,629
156135,342,248,414
156146,344,389,207
156156,347,334,382
156166,350,209,206
156176,328,721,775
156186,361,323,70
156196,326,711,232
156206,329,251,108
156216,334,559,735
156226,335,710,755
156236,345,417,96
156246,358,442,193
156256,335,318,134
156266,333,248,96
156276,366,339,791
156286,414,314,105
156296,330,537,408
156306,326,648,751
156316,334,541,690
156326,347,685,515
156336,349,375,126
156346,328,585,72
156356,356,207,60
156366,368,642,156
156376,365,456,625
156386,448,674,460
156402,340,385,132
156417,349,395,38
156434,371,496,772
156449,325,483,49
156465,366,467,560
156481,340,243,254
156497,335,669,751
156512,358,192,71
156528,366,412,57
156543,339,592,80
156559,358,623,84
156576,372,644,226
156591,355,235,82
156608,356,400,373
156621,319,635,8
156639,372,577,139
156655,329,627,474
156671,338,659,220
156687,339,219,150
156702,350,683,688
156718,365,656,657
156733,306,423,38
156749,349,267,74
156763,356,228,8
156781,378,158,259
156797,357,231,679
156813,338,615,661
156829,353,675,656
156843,350,293,84
156860,364,429,258
156876,720,638,362
156892,334,657,157
156908,343,462,523
156923,313,649,10
156939,354,339,180
156955,328,658,640
156970,314,666,55
156986,353,642,63
157003,369,606,455
157018,355,625,107
157034,333,187,688
157050,345,598,705
157066,322,371,666
157080,338,332,8
157097,379,505,140
157111,353,182,8
157129,369,688,487
157144,327,244,70
157160,344,319,250
157175,348,625,50
157191,342,615,53
157207,351,627,75
157224,349,475,455
157239,342,610,256
157255,345,539,705
157271,316,244,731
157286,324,668,16
157302,368,206,83
157318,354,673,155
157332,319,497,8
157349,389,687,39
157365,369,677,65
157380,367,296,99
157396,352,671,27
157412,361,536,83
157429,326,477,782
157444,306,233,52
157460,359,304,112
157476,337,687,172
157492,341,397,235
157508,320,538,180
157523,357,308,38
157539,376,568,690
157554,341,577,20
157570,342,323,83
157587,351,407,848
157603,343,602,472
157618,332,250,317
157634,324,582,451
157649,337,629,67
157666,356,559,391
157682,331,279,541
157696,311,629,62
157712,383,342,88
157729,355,472,731
157743,332,370,8
157760,363,281,76
157776,358,752,760
157792,341,701,763
157808,323,658,310
157824,356,331,682
157840,335,395,712
157855,329,286,153
157871,332,350,665
157886,348,635,35
157901,387,95,59
157919,401,501,773
157934,368,503,693
157949,339,181,50
157966,343,654,763
157982,370,500,282
157998,396,619,429
158013,353,552,100
158029,352,589,590
158045,650,386,595
158061,359,398,416
158077,317,363,566
158092,613,486,707
158108,414,183,760
158124,340,298,677
158140,436,342,217
158156,320,219,139
158171,332,390,49
158186,360,259,44
158203,357,242,356
158218,339,220,80
158234,361,527,79
158251,370,672,285
158266,349,429,503
158281,334,163,71
158298,392,319,751
158314,363,599,104
158329,317,490,93
158345,378,565,118
158361,327,359,102
158377,304,373,250
158393,337,532,104
158409,324,635,102
158424,346,242,707
158439,322,584,42
158456,392,172,134
158472,378,592,339
158488,312,418,676
158503,330,308,438
158519,357,616,368
158534,350,662,94
158551,364,507,793
158567,336,472,372
158582,336,667,699
158598,336,466,558
158614,343,670,147
158629,349,218,28
158646,365,747,100
158662,352,561,115
158677,581,512,772
158693,337,547,125
158709,344,621,786
158725,330,453,140
158741,335,438,749
158756,378,450,633
158772,318,452,509
158788,324,539,305
158804,319,523,568
158819,322,491,80
158835,365,241,768
158850,350,214,50
158867,347,420,286
158883,370,343,616
158899,360,311,186
158913,364,155,71
158930,340,356,174
158945,363,395,72
158961,374,179,40
158978,369,680,705
158993,334,163,158
159008,336,270,49
159025,360,239,131
159040,333,539,20
159057,346,309,700
159072,340,619,500
159088,318,341,364
159104,329,441,561
159119,334,487,83
159136,343,400,232
159152,487,655,288
159166,309,234,55
159183,328,535,108
159199,355,207,388
159214,339,249,42
159231,345,639,388
159244,377,225,8
159262,352,618,822
159278,328,445,710
159294,338,268,364
159308,330,173,40
159324,349,644,70
159340,361,286,84
159357,334,615,749
159373,343,607,468
159388,330,654,630
159404,349,212,233
159420,340,527,497
159436,352,532,647
159452,349,556,690
159468,311,541,678
159482,294,565,63
159499,357,517,115
159515,350,671,335
159531,312,475,502
159547,513,656,323
159562,308,516,240
159578,323,216,218
159593,341,506,48
159610,355,410,183
159625,324,241,43
159641,359,251,113
159656,329,240,99
159673,358,483,156
159688,323,721,22
159705,325,270,100
159719,340,593,68
159735,342,580,84
159752,357,444,771
159767,340,556,59
159784,345,683,724
159798,347,479,68
159815,353,662,641
159831,373,567,112
159847,311,655,712
159863,316,278,220
159878,457,534,345
159893,325,416,23
159909,363,566,94
159926,342,667,337
159942,430,361,704
159957,294,654,337
159973,346,511,720
159989,352,400,708
160005,353,632,720
160020,331,155,69
160036,352,681,213
160052,342,570,399
160068,313,395,419
160083,323,398,74
160100,331,400,167
160114,334,347,75
160131,365,581,187
160147,331,660,365
160162,389,120,49
160179,390,579,411
160194,333,328,101
160209,319,618,78
160226,383,668,113
160241,325,115,64
160258,356,609,136
160272,307,212,98
160288,317,227,76
160305,332,699,109
160320,309,411,26
160337,370,437,151
160351,323,704,69
160367,359,354,97
160383,352,307,87
160400,365,322,197
160416,341,637,108
160431,340,217,115
160447,342,656,106
160463,368,139,201
160479,362,257,108
160495,320,677,673
160509,306,199,82
160526,330,600,102
160542,314,351,124
160558,307,385,479
160573,330,249,64
160589,323,580,471
160604,303,226,77
160621,336,299,140
160637,351,337,147
160653,329,578,188
160667,339,664,73
160684,328,353,137
160699,331,276,77
160715,361,186,66
160732,354,427,264
160798,369,632,710
160809,353,680,720
160819,324,601,67
160829,366,294,155
160840,362,563,739
160850,340,407,639
160860,368,688,697
160870,344,444,579
160880,356,624,702
160890,355,376,715
160906,451,309,130
160921,370,660,751
160937,328,606,373
160953,375,650,260
160969,315,669,606
160985,359,610,780
161000,311,595,669
161016,320,664,670
161032,327,308,360
161048,338,233,624
161064,352,603,579
161080,401,645,694
161095,318,265,638
161111,333,192,256
161127,477,636,141
161142,347,267,94
161159,389,274,648
161174,347,337,667
161190,313,664,276
161206,345,602,659
161222,322,184,822
161238,343,502,245
161254,336,195,235
161269,330,217,286
161285,352,387,211
161301,328,503,226
161316,346,135,86
161333,369,690,640
161347,375,408,81
161364,382,686,176
161380,344,688,202
161396,353,246,158
161412,331,536,654
161427,345,437,286
161443,335,352,256
161459,312,251,421
161475,349,433,166
161491,345,258,230
161506,335,690,268
161522,341,512,442
161538,327,373,564
161554,352,694,201
161570,341,198,159
161586,329,673,222
161601,341,655,156
161616,340,632,98
161633,373,654,444
161649,338,470,123
161665,326,692,361
161680,321,679,320
161696,317,572,311
161712,354,503,112
161728,358,612,730
161744,323,432,166
161760,549,648,614
161775,314,627,479
161791,329,617,143
161806,327,635,41
161823,342,635,144
161838,335,281,39
161854,347,654,147
161870,361,704,243
161886,336,473,652
161901,343,269,38
161918,353,265,116
161933,335,704,746
161948,317,254,94
161965,345,398,853
161981,343,311,671
161996,370,427,16
162012,357,453,173
162027,322,323,94
162044,326,688,462
162060,328,232,196
162074,355,612,8
162091,365,524,181
162106,324,320,88
162123,362,647,176
162139,335,310,101
162155,351,381,733
162170,348,681,540
162186,333,332,163
162202,344,203,127
162218,339,668,249
162234,437,416,198
162249,345,664,313
162264,313,460,51
162281,327,353,116
162296,356,339,26
162313,376,642,725
162328,384,639,690
162341,350,6,88
162360,400,612,640
162376,349,539,129
162391,312,414,81
162407,339,642,160
162423,340,377,379
162438,374,433,98
162455,352,198,141
162471,340,163,141
162485,316,52,242
162502,333,365,675
162516,311,571,8
162534,378,668,461
162550,342,620,697
162565,346,316,352
162581,330,455,350
162597,350,606,254
162613,314,244,735
162629,347,211,269
162642,309,64,51
162660,701,690,379
162676,313,193,287
162692,336,683,662
162708,352,424,134
162723,322,546,120
162739,320,594,455
162755,317,454,213
162771,344,490,635
162787,344,470,523
162801,321,302,80
162817,352,411,98
162834,365,482,142
162850,349,284,137
162866,374,647,481
162882,349,269,190
162897,308,484,414
162912,319,597,91
163071,348,307,155
163081,337,687,672
163092,335,221,673
163103,325,632,111
163113,324,611,389
163123,324,350,77
163133,350,147,122
163144,325,344,735
163154,328,405,166
163165,318,601,641
163175,412,612,91
163185,358,80,156
163380,344,406,302
163390,324,334,98
163400,371,275,148
163410,426,380,385
163420,327,636,720
163430,313,646,744
163440,333,604,167
163450,305,282,556
163460,326,6,378
163470,372,652,136
163481,353,529,279
163707,
163717,8,352,580
163727,80,746
163738,333,272,122
163748,332,443,675
163758,328,206,64
163768,358,228,284
163779,344,653,100
163790,355,668,757
163800,321,469,84
163810,364,457,699
163821,336,433,192
163832,497,234,125
163842,310,542,82
163873,343,687,235
163884,341,209,104
163894,343,177,660
163905,341,478,731
163916,317,450,79
163926,360,401,166
163937,455,502,198
163947,324,662,767
163957,326,250,198
163967,349,685,52
163978,378,711,849
163988,384,523,212
163998,377,658,367
164008,348,307,33
164018,363,614,148
164028,306,98,290
164039,367,638,609
164049,336,615,299
164059,356,663,716
164069,366,629,272
164079,333,273,16
164089,350,363,320
164099,353,225,103
164110,348,604,226
164120,381,681,349
164130,314,371,89
164141,376,495,601
164151,365,617,89
164162,371,443,785
164172,343,219,78
164182,363,606,75
164194,763,501,273
164204,338,361,41
164214,362,298,121
164224,370,503,719
164234,348,434,151
164244,328,549,768
164254,320,482,79
164264,457,691,112
164274,314,319,74
164284,346,573,298
164294,330,83,136
164304,362,454,435
164314,351,195,14
164324,353,657,218
164334,313,342,101
164344,344,158,174
164354,306,669,36
164366,345,95,123
164383,351,195,456
164398,298,600,48
164415,345,546,808
164430,320,493,127
164445,326,657,64
164462,344,260,101
164477,317,259,21
164494,355,521,122
164509,336,490,733
164524,346,226,55
164541,347,652,548
164555,348,30,10
164571,401,231,97
164588,365,564,175
164604,352,258,769
164619,366,537,38
164636,392,314,385
164652,349,636,151
164667,343,600,725
164682,345,88,350
164699,347,525,726
164715,360,230,644
164730,337,615,60
164746,390,497,546
164761,337,266,85
164778,349,300,757
164794,356,649,500
164810,351,409,200
164825,341,671,188
164841,343,242,646
164857,605,522,305
164873,334,508,428
164889,387,383,488
164903,331,121,88
164920,376,534,470
164936,352,517,133
164952,337,331,727
164968,318,533,508
164984,374,607,483
164999,333,623,102
165015,381,294,761
165030,310,492,59
165047,353,206,125
165063,333,282,200
165077,282,202,56
165094,348,671,152
165110,350,506,724
165126,301,553,778
165142,332,383,732
165156,342,456,60
165173,326,326,110
165189,324,672,775
165205,328,520,135
165221,325,668,114
165236,343,344,171
165252,355,601,253
165268,310,697,715
165284,358,664,691
165300,331,188,236
165316,324,628,114
165331,313,671,730
165347,335,550,730
165362,329,288,45
165378,336,290,61
165395,355,725,375
165409,326,266,85
165426,331,410,748
165442,323,271,103
165458,321,720,759
165474,336,490,421
165488,323,185,43
165505,343,654,775
165520,326,244,35
165537,365,289,102
165552,340,168,84
165567,363,453,74
165584,352,462,175
165599,335,668,87
165616,346,292,157
165632,355,581,148
165646,331,665,82
165663,356,580,125
165678,341,531,67
165695,357,667,702
165711,330,646,348
165726,355,449,709
165741,338,586,97
165758,356,497,669
165774,369,519,684
165790,340,654,718
165805,364,232,198
165821,348,316,159
165837,339,555,690
165853,355,514,510
165868,354,440,53
165883,351,623,15
165900,372,657,654
165915,360,618,81
165932,374,439,248
165947,342,359,87
165963,349,660,614
165979,320,396,100
165995,338,313,717
166011,317,310,220
166026,360,204,33
166042,353,290,173
166058,324,398,693
166073,322,243,70
166090,372,243,107
166106,332,269,152
166121,332,245,700
166137,327,619,629
166153,335,212,111
166169,332,546,676
166185,348,683,762
166199,340,378,72
166215,366,643,56
166232,363,617,682
166248,323,660,634
166263,319,221,31
166279,358,487,735
166294,323,664,56
166310,366,188,74
166326,364,385,99
166342,363,238,44
166358,351,196,694
166373,317,429,35
166390,348,256,194
166406,331,444,624
166422,336,645,506
166435,357,208,8
166453,378,217,117
166469,335,241,138
166485,364,385,144
166498,344,239,8
166516,361,196,109
166531,339,564,78
166548,365,637,118
166564,331,269,185
166580,333,634,141
166674,345,577,15
166684,354,450,345
166695,356,165,183
166706,339,243,84
166716,348,693,125
166727,340,200,88
166739,336,238,779
166750,330,192,401
166761,357,390,659
166771,353,309,738
166782,302,266,218
166824,325,181,50
166834,328,263,160
166846,312,637,783
166857,385,614,770
166868,348,663,353
166878,337,253,54
166890,356,258,438
166901,305,607,524
166911,325,274,641
166922,328,577,747
166932,347,457,19
175563,33,286,110
175573,338,116
175583,337,663,67
175593,327,661,113
175603,328,318,686
175613,336,468,145
175623,341,420,82
175633,350,426,44
175643,363,718,116
175653,328,166,270
175663,335,156,64
175673,380,351,94
175683,364,621,462
175693,318,626,524
175703,344,152,204
175713,324,671,533
175723,355,143,78
175734,385,630,119
175744,352,686,101
175754,368,596,272
175765,342,188,61
175776,376,532,723
175786,345,185,61
175796,344,720,159
175806,332,207,135
175817,349,268,94
175827,389,407,75
175837,360,394,441
175847,665,480,720
175858,363,297,9
175868,406,662,662
175878,370,663,245
175888,340,535,634
175898,395,592,144
175909,349,222,86
175919,370,681,336
175929,360,486,214
175939,332,441,56
175949,657,521,99
175959,380,185,112
175969,336,264,711
175980,341,370,551
175990,338,629,422
176000,345,305,61
176010,359,703,118
176020,334,400,266
176030,336,676,101
176041,346,463,230
176051,335,554,688
176061,341,385,466
176072,333,444,75
176082,372,715,162
176092,349,727,811
176102,317,376,93
176113,357,396,142
176123,366,699,266
176133,327,357,527
176143,343,633,295
176158,320,388,169
176174,369,208,112
176189,345,497,55
176206,337,516,133
176220,348,418,83
176237,340,694,172
176253,332,113,207
176267,358,6,254
176285,397,325,717
176299,341,115,62
176316,366,384,160
176330,346,5,102
176347,382,619,90
176364,365,472,753
176378,326,326,88
176395,355,293,172
176411,328,684,202
176426,359,401,41
176443,351,393,306
176458,377,672,725
176473,340,359,76
176490,367,336,220
176506,363,341,125
176522,733,682,751
176537,362,594,104
176553,359,571,101
176569,381,447,164
176584,369,714,96
176601,393,619,121
176616,341,629,726
176632,336,676,102
176647,364,208,38
176664,340,517,296
176680,327,355,286
176695,320,308,221
176710,375,153,23
176726,341,303,93
176743,347,391,142
176759,314,541,758
176774,397,442,109
176790,616,628,343
176806,376,482,109
176822,348,633,205
176838,365,355,134
176852,336,293,90
176869,373,695,383
176885,388,395,289
176900,369,494,71
176917,367,542,668
176933,323,222,369
176947,337,482,66
176963,342,574,51
176980,366,406,170
176995,312,548,44
177012,350,659,106
177026,326,281,34
177043,351,670,112
177058,371,363,96
177074,422,534,44
177090,327,434,400
177106,484,631,160
177122,325,469,725
177138,320,575,178
177154,389,271,756
177168,340,633,77
177185,347,413,132
177201,312,654,554
177217,285,584,783
177232,330,269,23
177249,341,719,639
177264,313,386,230
177280,315,677,686
177296,326,694,694
177312,361,273,110
177328,344,478,363
177343,305,438,548
177358,509,195,45
177375,357,490,704
177391,347,626,320
177406,343,454,85
177422,340,480,122
177438,341,623,669
177454,327,305,422
177469,324,237,64
177485,351,162,61
177501,420,601,212
177517,325,269,171
177533,329,736,742
177548,337,535,39
177565,357,574,264
177580,335,614,179
177595,354,195,53
177612,319,555,728
177628,302,658,687
177644,320,161,248
177657,331,244,8
177675,378,653,679
177691,347,537,460
177707,315,624,687
177722,313,464,36
177738,345,283,190
177754,341,419,362
177770,505,364,626
177786,300,592,574
177802,318,419,667
177818,331,132,610
177833,332,626,688
177849,290,426,408
177865,337,315,233
177881,307,657,464
177897,352,326,127
177912,367,578,112
177927,376,174,88
177944,363,238,279
177960,364,680,784
177976,351,401,112
177990,337,300,74
178007,357,678,255
178022,362,174,58
178039,363,463,394
178054,329,530,64
178070,357,185,104
178086,429,372,536
178102,425,560,553
178118,320,260,649
178134,722,613,645
178150,675,677,570
178165,332,506,315
178181,351,203,668
178197,339,122,234
178213,359,379,172
178354,352,635,696
178364,323,611,102
178374,336,644,19
178384,386,267,26
178394,376,622,114
178404,376,657,595
178414,351,662,91
178424,383,532,794
178434,360,263,378
178444,331,562,214
178454,322,472,784
178464,344,674,743
178474,359,321,379
178484,375,336,754
178494,335,195,13
178504,367,202,113
178514,352,194,309
178524,340,562,16
178534,361,463,142
178544,348,704,74
178554,347,619,754
178564,329,68,247
178576,355,633,382
178592,352,668,110
178608,644,694,757
178623,326,219,48
178638,384,689,53
178655,395,494,320
178671,341,636,605
178686,326,209,90
178703,350,245,147
178717,319,672,25
178734,350,577,134
178749,311,290,92
178765,388,302,41
178782,352,642,339
178797,370,373,312
178812,343,646,66
178829,357,620,230
178844,351,398,79
178860,375,220,60
178876,351,224,114
178891,558,686,85
178908,338,205,111
178924,322,631,272
178940,328,416,254
178955,360,278,215
178971,395,540,701
178987,329,529,693
179003,322,367,156
179019,502,425,203
179035,443,294,692
179050,339,402,352
179066,324,494,758
179081,328,165,80
179098,351,419,458
179114,352,457,197
179127,322,294,8
179145,386,293,667
179161,355,338,771
179176,348,407,39
179191,350,406,42
179207,351,229,11
179223,347,186,58
179239,329,212,83
179256,362,666,715
179270,526,381,84
179286,341,299,75
179303,347,549,752
179319,312,357,708
179334,316,189,48
179350,337,508,782
179366,335,588,724
179380,326,553,8
179398,374,442,860
179414,396,539,460
179429,336,629,396
179444,324,648,50
179461,344,574,177
179476,343,172,27
179490,349,619,8
179508,369,311,153
179524,344,315,148
179539,322,685,22
179555,353,288,36
179571,357,448,705
179587,365,550,628
179603,500,521,544
179619,303,452,208
179635,375,305,724
179651,367,495,260
179666,354,650,182
179682,328,563,403
179698,335,429,298
179714,357,564,684
179730,340,685,636
179745,320,371,349
179761,331,262,153
179777,469,349,678
179792,324,245,40
179809,352,218,613
179824,314,242,692
179840,315,552,471
179856,322,770,796
179872,328,514,674
179888,351,532,553
179903,360,557,32
179918,363,375,13
179934,363,646,51
179950,366,329,84
179967,340,647,155
179982,324,661,228
179998,524,594,734
180014,337,657,740
180030,347,534,304
180046,346,413,708
180061,363,281,35
180077,341,392,468
180092,324,314,11
180109,368,203,118
180125,333,649,211
180138,318,372,8
180156,370,712,199
180171,307,339,62
180187,335,438,60
180204,366,356,164
180219,328,271,548
180234,346,493,49
180251,353,534,141
180267,318,267,530
180283,340,639,104
180298,326,552,795
180314,332,422,133
180329,347,484,63
180346,345,344,196
180362,379,700,598
180376,346,451,91
180393,438,600,598
180408,323,176,19
180423,353,260,8
180441,384,391,201
180455,345,531,62
180472,363,721,731
180488,326,382,168
180504,315,194,391
180520,340,293,733
180534,316,601,61
180551,351,504,649
180567,344,530,115
180582,338,497,12
180599,354,650,388
180614,340,443,693
180629,341,658,13
180646,363,327,105
180661,305,362,63
180678,349,424,331
180693,340,626,135
180708,316,180,70
180724,344,222,62
180741,352,693,763
180757,328,420,526
180772,335,693,773
180787,370,366,56
180803,365,317,66
180820,353,625,759
180836,333,660,735
180851,342,663,721
180867,346,600,153
180883,348,535,694
180899,323,652,499
180915,343,670,664
180931,340,674,645
180946,341,404,212
180962,342,556,176
180978,330,559,255
180994,346,396,174
181010,348,378,692
181025,340,470,763
181040,348,626,38
181057,378,702,812
181073,574,575,662
181089,400,375,218
181105,324,338,479
181120,316,276,106
181135,353,244,68
181151,374,527,53
181168,357,591,752
181184,371,272,123
181198,341,184,73
181213,389,379,8
181231,395,491,133
181247,328,404,492
181260,315,98,90
181278,344,349,100
181294,353,656,400
181310,348,649,688
181326,337,237,251
181339,348,710,8
181357,382,210,159
181373,339,207,102
181389,330,585,703
182516,
182526,337,597,745
182536,6,377,527
182546,347,325,698
182556,325,589,549
182566,338,267,388
182576,337,569,300
182586,353,371,576
182596,359,289,62
182606,354,667,552
182616,334,134,162
182626,327,128,12
182636,322,646,109
182646,311,595,749
182656,320,636,657
182666,327,417,290
182676,343,618,12
182686,348,520,697
182696,327,626,28
182706,363,655,735
182716,332,438,82
182727,341,481,766
182738,329,584,650
182748,325,725,54
182758,373,324,54
182768,372,209,125
182779,317,175,34
182789,360,681,614
182799,339,241,109
182809,319,187,29
182819,346,359,202
182830,345,674,722
182840,301,576,676
182851,313,619,153
182861,326,344,249
182871,292,657,723
182881,330,497,690
182891,336,439,690
182901,685,590,629
182912,304,493,48
182922,338,541,593
182933,418,438,186
182943,328,598,344
182953,356,178,100
182963,346,387,536
182974,321,322,386
182984,321,192,712
182995,407,463,451
183005,315,554,751
183015,313,652,104
183025,343,363,194
183035,301,480,455
183046,344,551,773
183056,322,537,10
183066,345,686,20
183076,356,433,223
183086,308,489,745
183096,334,673,33
183111,498,330,263
183126,308,333,12
183142,356,207,47
183158,336,348,34
183173,392,642,65
183190,354,493,658
183206,324,617,107
183222,342,242,269
183238,326,388,327
183254,337,646,325
183268,315,169,33
183284,364,552,93
183301,370,577,197
183317,338,293,716
183330,315,165,8
183348,359,428,133
183363,320,180,54
183380,338,455,446
183394,315,188,8
183411,355,219,114
183427,316,184,700
183442,346,189,26
183458,328,175,89
183475,349,539,574
183490,313,381,476
183506,335,492,365
183522,297,414,680
183537,344,171,27
183553,344,460,74
183569,344,533,147
183585,334,371,662
183599,347,212,8
183617,362,706,774
183632,346,273,70
183647,359,648,91
183664,367,284,446
183679,304,528,50
183696,349,641,156
183712,343,286,169
183726,335,649,91
183743,367,571,464
183759,324,464,164
183775,343,628,152
183791,320,567,210
183806,337,411,118
183821,305,551,51
183837,343,232,97
183854,351,482,478
183870,329,515,645
183885,324,635,642
183901,333,253,654
183917,309,555,643
183933,314,568,660
183949,313,498,660
183965,339,516,687
183979,327,208,34
183996,491,262,212
184012,327,601,204
184027,491,249,82
184043,365,692,442
184059,336,641,174
184075,343,530,684
184090,315,266,32
184107,352,650,711
184123,323,380,161
184137,346,611,28
184154,331,676,718
184170,322,362,195
184186,332,388,713
184202,340,657,289
184217,353,644,662
184233,352,674,713
184249,290,455,189
184265,327,662,452
184281,355,383,657
184294,368,684,8
184311,390,301,81
184327,372,700,70
184344,401,641,484
184360,366,432,333
184375,364,674,349
184391,335,296,700
184407,350,559,818
184422,446,232,86
184439,375,654,352
184453,330,642,54
184470,383,653,728
184486,353,666,658
184502,314,275,640
184517,348,514,51
184533,371,529,249
184548,322,414,64
184565,339,448,735
184580,324,382,16
184597,341,686,341
184612,308,326,552
184627,345,502,61
184644,374,641,116
184659,342,409,54
184676,360,653,852
184691,337,452,710
184706,537,691,58
185036,28,633,144
185046,246,219
185056,309,656,152
185066,317,464,18
185077,359,719,774
185087,354,335,499
185097,354,418,173
185107,340,640,130
185118,338,398,394
185128,351,210,144
185138,328,364,160
185149,338,590,77
185160,435,280,125
185170,348,647,490
185180,348,589,102
185190,313,389,131
185201,337,515,197
185211,318,226,135
185221,301,364,706
185231,309,302,210
185241,352,548,147
185251,319,358,698
185261,326,538,299
185271,342,671,345
185281,316,475,604
185292,352,519,704
185302,505,441,291
185312,377,489,700
185322,350,460,681
185332,371,620,545
185342,596,392,317
185352,333,414,667
185362,287,682,455
185372,331,687,677
185382,283,179,115
185392,325,297,25
185402,380,714,84
185412,352,591,424
185422,329,668,502
185432,326,425,605
185442,313,190,50
185452,338,337,498
185462,331,197,708
185472,329,638,683
185482,355,574,76
185492,354,630,680
185502,345,453,84
185512,356,675,419
185522,325,685,45
185532,344,217,155
185542,309,208,107
185552,304,550,9
185562,339,399,8
185572,364,728,753
185582,301,307,8
185592,360,260,158
185607,321,683,24
185624,330,449,734
185639,320,234,65
185656,328,244,288
185670,315,417,70
185687,346,717,758
185703,312,554,212
185719,318,354,107
185735,329,643,693
185750,337,608,687
185765,361,435,24
185781,330,221,41
185796,349,227,8
185813,371,759,145
185828,348,203,46
185845,365,494,715
185860,370,385,72
185876,353,292,91
185892,363,215,687
185908,336,673,675
185923,348,350,72
185939,336,535,93
185956,351,381,588
185970,341,84,168
185986,362,457,64
186003,380,360,322
186019,333,260,715
186035,357,456,128
186050,318,651,727
186066,356,621,168
186082,329,623,139
186097,307,232,42
186114,338,265,668
186128,342,330,30
186144,345,214,32
186161,374,237,290
186177,336,652,106
186193,363,538,689
186207,348,551,70
186224,380,700,145
186512,354,211,392
186522,344,470,128
186532,312,300,101
186542,337,598,128
186552,361,256,143
186562,339,243,20
186572,350,489,41
186583,353,199,111
186593,340,202,766
186603,333,649,591
186613,332,625,174
186623,308,595,498
186633,447,297,708
186643,332,710,223
186653,314,627,548
186663,338,179,32
186673,343,668,86
186683,361,528,125
186693,340,253,63
186703,370,226,8
186713,377,679,735
186723,330,573,128
186734,331,618,308
186745,320,553,768
186755,332,177,21
186765,345,583,100
186776,319,611,647
186786,326,296,108
186796,318,340,122
186806,315,464,133
186816,349,237,30
186826,334,283,29
186836,364,295,109
186846,336,673,694
186857,340,676,681
186867,327,654,636
186878,318,228,25
186888,327,714,129
186898,340,200,113
186908,320,645,625
186919,307,649,748
186929,353,365,466
186940,326,208,21
186950,364,634,93
186960,314,421,667
186970,743,695,245
186981,366,266,34
186991,356,359,445
187001,356,716,289
187013,345,691,70
187030,363,620,158
187114,342,456,568
187125,349,698,440
187136,345,238,629
187146,324,344,684
187156,335,284,164
187166,362,368,42
187176,361,227,72
187186,487,363,773
187196,307,285,134
187206,348,397,454
187216,339,525,679
187226,356,242,8
187236,384,669,117
187252,320,569,552
187266,310,768,42
187283,338,613,785
187298,315,482,76
187315,355,344,724
187330,351,436,66
187346,356,327,112
187362,323,263,110
187378,344,308,202
187393,324,538,99
187410,357,273,210
187425,350,428,123
187441,317,567,703
187457,332,177,491
187472,329,89,632
187489,353,228,144
187503,330,349,40
187520,374,602,769
187536,325,268,281
187552,335,161,265
187568,335,401,318
187583,317,532,121
187599,338,596,708
187615,337,633,725
187630,327,444,35
187646,363,520,49
187660,346,490,8
187677,368,158,90
187694,353,663,342
187710,327,192,269
187726,359,548,667
187740,357,245,61
187757,509,663,729
187773,322,402,702
187789,296,680,670
187803,331,252,8
187819,379,700,88
187836,375,329,180
187850,332,464,8
187867,352,529,58
187883,359,236,117
187898,299,253,12
187914,357,242,42
187931,351,459,293
187947,327,687,317
187962,364,364,740
187978,315,648,682
187994,324,463,140
188010,317,433,308
188026,578,641,579
188040,315,244,30
188057,337,156,208
188073,319,544,477
188089,324,236,662
188105,361,228,150
188121,324,592,711
188136,328,586,430
188152,349,618,167
188168,344,417,445
188183,324,214,64
188200,341,674,111
188215,334,676,423
188231,308,445,763
188245,404,234,9
188263,392,357,221
188279,330,250,150
188293,351,400,90
188310,346,340,152
188325,300,242,61
188342,356,695,168
188358,303,702,663
188373,321,559,613
188388,341,277,84
188405,351,500,134
188420,339,249,17
188436,366,665,73
188451,364,606,66
188466,342,692,8
188484,362,527,711
188500,331,553,669
188516,331,707,676
188529,358,477,8
188547,394,370,122
188562,333,367,56
188579,348,177,125
188593,347,263,45
188610,379,486,164
188626,324,505,689
188642,502,423,715
188657,341,579,40
188672,337,370,59
188689,344,576,719
188705,355,667,542
188721,340,314,359
188737,349,274,196
188753,326,637,119
188768,351,524,304
188782,351,298,8
188800,376,633,182
188815,345,554,24
188831,336,514,716
188847,345,420,639
188862,302,470,27
188878,329,329,53
188894,321,231,59
188910,353,308,138
188925,328,601,72
188942,354,504,116
188958,356,334,389
188974,342,695,325
188988,349,251,56
189005,364,526,287
189021,354,654,682
189037,308,310,671
189051,355,307,8
189068,347,672,707
189084,313,456,757
189100,315,523,706
189116,321,572,297
189131,335,658,38
189147,321,651,287
189163,323,569,323
189179,339,372,680
189195,367,596,202
189211,325,214,189
189225,323,319,16
189242,354,410,700
189258,324,451,707
189273,327,284,37
189290,319,269,689
189303,339,387,9
189320,362,387,64
189337,340,542,756
189353,325,683,212
189369,400,644,682
189383,298,272,30
189400,329,309,136
189416,337,679,130
189432,337,677,424
189447,332,535,16
189463,348,691,787
189477,293,459,8
189709,353,724,594
189719,316,416,425
189730,346,410,64
189741,357,649,566
189751,336,339,8
189761,401,580,153
189772,344,663,42
189782,362,344,223
189792,350,621,708
189802,338,616,673
189812,348,386,48
189822,381,251,92
189832,338,311,90
189842,367,685,294
189853,361,264,88
189863,365,278,32
189873,362,487,425
189883,363,427,187
189894,360,390,342
189905,370,619,78
189915,358,464,125
189925,326,653,472
189935,347,303,211
189945,312,391,66
189955,337,549,135
189966,678,416,717
189977,350,335,84
189987,340,636,455
189998,389,419,334
190008,309,313,491
190018,314,592,759
190028,326,185,734
190038,336,337,387
190049,338,422,113
190059,326,362,635
190069,336,618,8
190079,375,331,487
190089,398,570,80
190100,388,401,735
190110,360,263,58
190127,353,691,765
190143,323,532,718
190159,313,452,662
190174,295,586,645
190189,301,308,78
190206,333,622,652
190220,314,204,8
190238,359,511,281
190251,331,215,8
190269,380,441,114
190285,328,513,403
190301,330,641,225
190317,308,672,661
190332,312,696,619
190347,307,449,66
190363,362,238,71
190380,400,516,349
190396,362,598,408
190411,313,371,184
190426,328,628,57
190442,353,671,88
190459,342,256,132
190474,304,373,89
190488,365,347,8
190506,383,447,233
190521,335,367,21
190538,358,464,760
190553,326,576,559
190569,338,250,102
190583,334,514,8
190600,393,672,95
190617,357,331,134
190631,354,325,62
190648,359,653,273
190662,334,402,8
190680,367,410,182
190696,327,338,125
190711,331,680,766
190726,356,351,24
190743,365,667,445
190759,461,441,697
190774,316,327,36
190790,336,555,145
190804,323,223,8
190822,377,245,126
190838,316,694,641
190854,326,668,262
190869,306,698,679
190884,339,451,82
190901,398,595,146
190917,327,514,660
190933,335,651,455
190948,340,492,700
190963,321,580,40
190979,336,276,56
190996,376,207,718
191012,330,633,707
191027,320,664,671
191043,319,427,356
191059,309,128,178
191075,308,656,116
191091,310,120,139
191107,546,495,338
191122,541,368,113
191138,308,653,723
191154,346,642,256
191169,335,203,12
191186,320,380,127
191201,391,677,241
191217,321,696,717
191232,318,286,22
191248,343,260,47
191264,347,417,33
191280,354,625,440
191416,344,235,75
191426,356,232,102
191436,333,431,499
191446,328,400,691
191457,337,353,27
191467,393,715,315
191601,355,411,770
191611,322,242,65
191621,347,613,836
191631,356,599,752
191641,338,290,8
191651,388,306,144
191661,314,477,146
191671,322,528,392
191682,349,650,702
191692,337,257,89
191702,354,711,26
191712,333,495,804
191722,319,443,250
191733,325,249,163
191744,340,405,150
191754,335,382,34
191765,332,475,733
191775,342,528,282
191785,317,433,66
191795,342,646,722
191805,329,401,8
191815,376,650,569
191825,378,417,597
191836,384,630,648
191847,329,441,8
191857,351,620,709
191867,309,376,653
191877,300,621,10
191887,304,439,193
191898,300,616,54
191908,289,681,654
191918,655,240,631
191928,267,662,669
191939,313,334,171
191950,322,653,204
191961,308,405,692
191971,344,653,683
191981,408,636,493
191991,328,629,680
192007,348,573,689
192023,336,400,112
192039,337,500,138
192055,332,118,200
192071,311,288,140
192086,322,500,682
192100,342,645,8
192118,317,276,713
192134,325,697,543
192149,297,697,88
192165,339,221,618
192180,295,699,90
192195,333,254,8
192212,377,280,68
192227,344,261,22
192242,322,245,8
192260,341,534,109
192275,317,248,89
192290,348,530,77
192306,359,139,51
192323,331,687,258
192338,327,631,11
192355,362,461,105
192369,360,236,82
192386,363,294,444
192402,341,479,660
192418,341,673,659
192434,335,415,615
192450,342,429,264
192465,333,644,612
192479,328,585,8
192497,383,426,724
192513,340,470,513
192528,378,653,351
192544,334,502,366
192559,339,258,69
192576,342,738,755
192592,332,275,284
192608,304,291,623
192623,325,630,710
192638,350,240,12
192654,358,730,61
192671,349,238,715
192687,733,234,198
192702,327,244,200
192718,326,156,175
192734,308,269,232
192748,347,523,8
192764,386,329,80
192780,367,209,14
192805,371,640,344
192815,356,569,210
192828,347,474,90
192842,364,551,8
192860,390,448,117
192876,360,615,730
192892,340,252,676
192907,317,236,82
192923,342,229,795
192939,320,295,653
192955,339,339,386
192969,343,204,8
192987,351,350,128
193000,349,236,8
193018,387,440,459
193034,340,693,651
193048,327,387,8
193065,361,519,44
193080,347,287,62
193097,348,446,705
193112,347,630,86
193129,353,643,233
193143,317,376,97
193160,349,644,692
193176,362,291,317
193191,323,377,35
193207,364,614,25
193223,337,295,579
193238,360,289,26
193255,362,183,121
193270,345,250,15
193287,333,290,544
193302,342,640,555
193317,328,190,62
193334,337,196,701
193348,343,672,8
193366,378,680,107
193380,351,560,27
193396,354,301,78
193413,356,414,118
193429,335,329,260
193444,341,378,11
193458,392,332,8
193476,392,395,144
193491,329,297,78
193508,361,739,375
193521,340,259,8
193539,369,714,796
193555,343,334,697
193571,349,429,665
193587,328,678,499
193600,334,615,8
193618,372,629,760
193634,380,515,707
193650,349,277,162
193665,366,671,74
193681,350,427,746
193697,318,225,108
193713,341,522,433
193729,313,714,195
193743,346,402,8
193760,570,316,204
193774,316,704,8
193792,389,428,642
193808,340,706,747
193823,339,268,96
193839,329,712,129
193854,340,213,80
193871,367,602,291
193887,335,222,691
193903,376,611,554
193918,352,703,656
193934,334,681,220
193950,354,235,201
193965,438,628,74
193982,336,502,705
193997,375,451,642
194013,326,336,135
194028,362,696,67
194045,339,370,182
194060,326,406,80
194075,359,615,71
194091,333,277,86
194108,353,423,184
194123,342,660,53
194140,357,259,145
194155,355,679,354
194169,329,366,9
194187,362,673,137
194203,315,312,735
194218,321,291,59
194233,384,225,98
194250,339,203,115
194266,326,524,306
194282,320,610,434
194296,323,455,8
194313,359,235,338
194328,352,721,55
194345,379,666,776
194361,340,643,511
194375,337,543,15
194392,344,638,683
194406,352,617,8
194424,405,657,775
194439,344,584,30
194455,348,232,165
194471,350,620,692
194485,358,179,8
194502,394,647,98
194519,364,249,653
194534,325,678,687
194549,345,286,64
194566,331,667,238
194581,323,615,57
194598,336,381,179
194612,330,664,52
194629,402,342,146
194644,324,334,10
194661,367,586,595
194677,367,610,671
194692,336,701,726
194708,348,460,205
194724,322,495,305
194738,363,597,8
194756,403,226,632
194771,348,602,740
194787,317,639,706
194801,317,332,8
194819,385,414,258
194835,349,529,723
194850,330,545,650
194866,375,661,705
194882,324,548,262
194898,330,503,493
194914,345,234,472
194929,348,445,714
194945,306,362,709
194961,362,236,729
194977,349,381,702
194992,340,259,32
195009,363,302,119
195024,351,519,215
195039,350,228,59
195055,333,613,93
195072,367,288,116
195087,322,584,650
195103,340,606,652
195118,390,630,11
195135,368,365,115
195151,356,233,485
195167,320,645,726
195182,331,432,722
195347,310,486,681
195357,336,655,14
195367,381,441,308
195377,310,169,28
195387,333,621,170
195397,318,198,8
195407,358,653,759
195417,379,451,92
195427,343,452,174
195437,304,461,20
195447,349,246,683
195457,313,334,8
195467,380,700,358
195477,309,240,76
195487,330,688,740
195497,691,477,163
195507,320,644,322
195517,316,189,67
195527,340,495,304
195537,363,351,444
195631,341,248,39
195641,348,373,176
195651,315,601,29
195661,341,590,121
195672,333,303,44
195682,357,719,326
195693,329,158,8
195704,363,417,765
195714,508,663,676
196044,68,786
196054,684
196064,315,668,171
196075,336,253,116
196085,326,375,145
196095,320,283,8
196106,405,221,731
196117,330,467,30
196128,354,274,729
196139,342,636,652
196150,348,639,676
196160,298,362,36
196170,357,453,256
196180,731,430,80
196190,363,257,151
196200,337,570,705
196210,302,332,308
196220,360,286,96
196230,370,124,126
196240,317,393,125
196250,323,547,96
196260,361,380,136
196270,295,460,687
196280,328,645,622
196290,327,450,48
196300,322,607,541
196310,350,481,701
196320,329,634,184
196330,306,370,472
196341,326,467,413
196351,348,523,704
196361,369,513,524
196371,341,677,710
196381,340,526,407
196391,291,671,8
196401,360,380,134
196411,349,205,628
196421,283,394,559
196431,313,154,713
196441,319,460,753
196451,313,289,726
196461,301,652,244
196471,309,188,690
196481,315,16,186
196491,379,620,47
196501,342,300,138
196511,329,543,339
196521,325,521,734
196531,339,577,647
196541,314,605,399
196551,289,652,16
196561,343,217,71
196571,323,469,131
196581,293,301,62
196591,316,538,759
196601,284,384,221
196611,316,173,64
196621,341,640,354
196636,315,665,232
196652,337,650,343
196667,323,198,23
196681,360,280,8
196699,394,422,507
196713,343,727,8
196730,361,261,75
196745,359,448,59
196761,319,237,69
196778,346,504,725
196793,340,216,75
196809,347,304,64
196824,330,633,41
196841,366,598,699
196857,453,271,689
196873,354,326,648
196889,336,665,173
196904,343,447,391
196919,307,329,21
196936,338,635,677
196952,339,612,718
196968,309,705,753
196984,306,729,749
196999,306,544,656
197015,323,500,111
197031,341,450,717
197047,341,334,656
197062,336,209,47
197078,364,400,137
197094,345,441,540
197109,332,260,10
197126,367,693,503
197141,332,490,90
197157,365,146,548
197173,372,526,682
197189,314,544,305
197203,333,465,8
197220,381,437,63
197235,326,620,58
197252,376,186,174
197268,320,617,783
197283,371,258,25
197300,359,515,280
197315,333,672,140
197331,606,431,175
197347,324,637,309
197363,322,638,142
197379,325,637,671
197394,342,641,659
197410,320,375,515
197426,330,402,453
197441,335,585,48
197458,333,181,100
197472,326,176,66
197489,316,658,517
197505,317,192,703
197521,306,503,633
197535,339,595,8
197552,354,351,778
197567,319,528,16
197584,325,632,703
197599,319,614,26
197615,356,453,88
197630,369,543,94
197647,365,493,776
197662,356,211,33
197679,331,225,705
197695,303,447,162
197710,305,234,135
197724,333,210,8
197742,382,258,113
197758,337,338,703
197774,332,412,673
197788,319,624,82
197805,340,640,509
197821,317,610,709
197837,320,641,496
197853,328,546,261
197868,334,684,212
197884,320,263,311
197898,340,473,8
197915,387,429,72
197932,352,472,175
197947,315,351,753
197962,308,298,25
197979,367,690,193
197995,339,240,427
198010,305,625,84
198026,358,545,225
198042,322,230,538
198058,332,683,640
198074,287,669,514
198090,298,526,281
198103,324,234,8
198121,352,595,763
198136,349,551,65
198153,370,378,360
198169,353,690,689
198184,322,340,738
198200,303,654,605
198216,332,676,648
198232,332,154,675
198300,312,435,237
198310,349,686,699
198320,339,300,334
198330,323,596,741
198340,321,244,59
198350,341,623,60
198360,352,683,40
198370,357,7,27
198380,375,701,108
198390,343,205,500
198406,316,351,449
198421,317,229,73
198436,313,236,91
198496,305,243,648
198506,319,654,699
198516,349,609,8
198526,375,172,487
198536,322,670,785
198546,410,682,681
198556,331,528,722
198566,348,292,146
198579,307,690,187
198595,305,485,772
198611,326,701,538
198627,319,396,730
198642,325,527,64
198657,337,670,46
