14956,37.06
14969,37.06
14979,36.74
14989,36.42
14999,36.74
15009,37.38
15019,37.38
15029,37.06
15039,36.74
15049,36.09
15059,36.42
15069,36.42
15079,36.74
15089,36.74
15099,36.74
15109,37.06
15119,37.06
15129,37.38
15139,36.74
15149,37.06
15159,37.38
15169,37.71
15179,37.38
15189,37.06
15199,37.38
15209,37.71
15219,37.06
15229,37.71
15239,37.38
15249,36.74
15260,36.74
15270,37.06
15280,36.74
15290,37.06
15300,36.74
15310,37.38
15320,36.74
15330,37.38
15340,36.74
15350,36.74
15360,37.06
15370,36.74
15380,37.06
15390,36.42
15400,36.74
15411,36.42
15422,36.42
15432,36.74
15442,37.06
15453,37.06
15463,36.74
15473,37.06
15483,36.74
15493,37.06
15503,37.06
15513,37.38
15523,37.38
15534,37.06
15544,37.06
15554,37.38
15566,36.74
15581,37.38
15597,37.71
15613,38.03
15629,36.74
15644,37.38
15660,37.71
15676,37.38
15692,37.38
15708,37.38
15723,37.38
15739,37.71
15755,37.38
15771,37.71
15786,37.71
15802,37.71
15818,37.38
15834,37.38
15850,37.71
15865,37.71
15881,37.38
15897,37.38
15913,37.38
15928,37.38
15944,37.38
15960,37.38
15976,37.38
15991,37.71
16007,38.03
16023,37.38
16039,37.71
16055,38.03
16070,37.71
16086,37.71
16102,37.71
16118,37.38
16133,37.71
16149,37.38
16165,37.71
16181,38.99
16197,38.03
16212,37.71
16228,38.03
16244,38.03
16260,38.03
16275,38.99
16291,38.67
16307,38.99
16323,38.67
16338,38.99
16354,38.99
16370,38.03
16386,38.03
16402,38.67
16417,38.67
16433,38.03
16449,38.03
16465,38.03
16480,38.67
16496,38.67
16512,38.03
16528,38.03
16543,38.03
16559,38.03
16575,38.03
16591,37.71
16607,38.03
16622,37.71
16638,37.71
16654,38.03
16670,37.71
16685,37.38
16701,38.03
16717,37.71
16733,37.38
16749,38.67
16764,38.67
16780,36.74
16796,37.71
16812,37.71
16827,37.38
16843,37.71
16859,38.03
16875,37.38
16890,37.71
16906,37.71
16922,37.38
16938,37.71
16954,37.71
16969,38.03
16985,37.38
17001,37.71
17017,37.38
17032,37.38
17048,37.71
17064,37.38
17080,37.38
17095,37.71
17111,37.38
17127,37.06
17143,37.38
17159,37.06
17174,37.06
17190,37.06
17206,37.71
17222,36.74
17237,36.74
17253,37.06
17269,37.06
17285,37.38
17301,38.03
17316,37.71
17332,36.74
17348,36.74
17364,37.06
17379,37.06
17395,37.38
17411,37.71
17427,37.38
17443,37.71
17458,37.71
17474,37.71
17490,37.06
17506,38.03
17521,37.06
17537,37.71
17553,37.71
17569,37.38
17584,37.38
17600,37.06
17616,37.71
17632,37.06
17648,37.38
17663,37.38
17679,37.38
17695,37.38
17711,37.38
17726,36.74
17742,37.06
17758,37.06
17774,37.06
17789,37.38
17805,37.06
17821,37.71
17837,37.38
17853,37.71
17868,37.38
17884,36.74
17900,37.38
17916,37.38
17931,37.06
17947,37.71
17963,37.06
17979,37.38
17995,37.38
18010,37.38
18026,37.71
18042,38.03
18058,37.71
18073,37.38
18089,37.71
18105,37.71
18121,37.06
18137,37.71
18152,37.38
18168,37.38
18184,37.06
18200,37.71
18215,37.71
18231,37.06
18247,37.71
18263,37.71
18278,37.38
18294,38.03
18310,38.67
18326,38.03
18342,37.71
18357,37.71
18373,38.03
18389,38.03
18405,38.67
18420,37.06
18436,37.38
18452,37.38
18468,37.38
18483,37.71
18499,37.38
18515,37.71
18531,37.38
18547,37.71
18562,38.03
18578,37.71
18594,37.38
18610,37.71
18625,37.06
18641,37.38
18657,37.06
18673,37.38
18688,37.38
18704,37.71
18720,37.71
18736,37.06
18752,37.71
18767,37.38
18783,37.38
18799,37.38
18815,37.38
18830,37.38
18846,37.38
18862,37.38
18878,37.06
18893,37.06
18909,37.38
18925,38.03
18941,38.03
18957,37.06
18972,37.38
18988,37.06
19004,37.38
19020,37.06
19035,37.06
19051,37.38
19067,37.38
19083,37.06
19099,37.38
19114,37.38
19130,37.38
19146,37.38
19162,37.06
19177,37.06
19193,37.38
19209,37.71
19225,37.38
19240,37.71
19256,37.38
19272,37.71
19288,37.38
19304,38.03
19319,37.71
19335,37.71
19351,37.38
19367,37.38
19382,37.71
19398,37.38
19414,37.38
19430,37.06
19446,37.38
19461,38.03
19477,37.71
19493,36.74
19509,37.06
19524,37.38
19540,37.38
19556,37.38
19572,37.06
19587,37.71
19603,37.06
19619,37.06
19635,37.38
19651,37.71
19666,37.71
19682,37.71
19698,37.38
19714,37.71
19729,37.38
19745,37.38
19761,37.38
19777,37.06
19792,37.38
19808,37.71
19824,37.38
19840,37.06
19856,37.71
19871,37.38
19887,37.71
19903,37.06
19919,37.06
19934,37.38
19950,37.38
19966,37.38
19982,37.71
19998,37.71
20013,37.06
20029,37.06
20045,36.74
20061,37.71
20076,37.06
20092,37.38
20108,37.38
20124,37.38
20139,37.38
20155,37.06
20171,37.71
20187,37.38
20203,37.71
20218,37.38
20234,37.38
20250,37.06
20266,37.06
20281,37.06
20297,37.38
20313,37.71
20329,37.06
20345,37.71
20360,37.38
20376,38.67
20392,37.71
20408,38.03
20423,38.03
20439,37.38
20455,37.38
20471,37.71
20486,37.38
20502,38.03
20518,38.03
20534,37.38
20549,37.71
20565,38.03
20581,37.71
20597,37.71
20613,37.71
20628,37.38
20644,37.71
20660,37.71
20676,38.03
20691,37.71
20707,37.38
20723,38.03
20739,37.71
20755,37.71
20770,37.71
20786,37.38
20802,37.38
20818,37.71
20833,37.38
20849,37.06
20865,37.06
20881,37.38
20897,37.71
20912,37.38
20928,37.71
20944,37.38
20960,37.06
20975,37.38
20991,37.38
21007,37.71
21023,38.03
21038,36.74
21054,37.38
21070,36.74
21086,37.38
21102,37.38
21117,37.38
21133,37.38
21149,37.38
21165,37.71
21180,37.71
21196,38.03
21212,38.03
21228,37.38
21243,37.38
21259,37.38
21275,37.71
21291,37.06
21307,37.38
21322,37.06
21338,37.38
21354,37.06
21370,38.03
21385,38.03
21401,38.03
21417,38.03
21433,37.38
21449,37.71
21464,37.71
21480,37.71
21496,37.71
21512,37.71
21527,38.99
21543,37.71
21559,37.38
21575,37.06
21590,38.03
21606,38.67
21622,38.03
21638,37.71
21654,38.03
21669,37.71
21685,38.03
21701,37.71
21717,38.03
21732,37.71
21748,37.06
21764,37.71
21780,37.06
21796,37.06
21811,37.06
21827,36.42
21843,36.42
21859,36.42
21874,35.77
21890,36.09
21906,36.09
21922,36.09
21937,35.77
21953,35.77
21969,35.77
21985,35.45
22001,35.45
22016,35.13
22032,36.09
22048,35.13
22064,35.13
22079,35.13
22095,35.45
22111,35.45
22127,35.45
22142,35.45
22158,35.45
22174,35.45
22190,35.45
22206,35.77
22221,35.45
22237,35.77
22253,35.45
22269,35.45
22284,35.77
22300,35.45
22316,35.77
22332,35.45
22348,35.45
22363,35.45
22379,35.13
22395,35.45
22411,35.77
22426,35.45
22442,35.45
22458,35.45
22474,35.13
22489,34.80
22505,35.13
22521,35.13
22537,35.77
22553,35.13
22568,34.16
22584,35.13
22600,35.13
22616,35.45
22631,34.80
22647,35.45
22663,35.45
22679,35.45
22695,35.77
22710,35.77
22726,35.77
22742,35.45
22758,35.45
22773,35.45
22789,35.13
22805,35.13
22821,34.80
22836,35.13
22852,35.13
22868,35.45
22884,35.13
22899,35.45
22915,35.77
22931,35.77
22947,34.80
22963,35.13
22978,35.13
22994,35.45
23010,35.13
23026,35.13
23041,35.45
23057,34.80
23073,34.80
23089,35.13
23105,35.13
23120,35.45
23136,35.45
23152,35.13
23168,35.45
23183,35.13
23199,35.45
23215,35.77
23231,35.77
23247,35.45
23262,35.45
23278,35.13
23294,35.13
23310,35.45
23325,35.45
23341,35.13
23357,35.13
23373,35.13
23388,35.13
23404,35.45
23420,35.77
23436,35.45
23452,35.45
23467,35.45
23483,35.45
23499,35.45
23515,34.80
23530,35.77
23546,36.09
23562,35.13
23578,34.80
23594,35.45
23609,35.13
23625,35.13
23641,35.13
23657,35.45
23672,35.77
23688,35.77
23704,35.77
23720,35.45
23735,35.77
23751,35.77
23767,35.77
23783,35.45
23798,35.13
23814,35.77
23830,35.45
23846,35.45
23862,35.45
23877,35.45
23893,35.45
23909,35.13
23925,35.45
23940,35.45
23956,35.45
23972,35.13
23988,35.13
24004,35.45
24019,35.45
24035,35.13
24051,35.77
24067,35.77
24082,34.16
24098,35.13
24114,35.13
24130,35.13
24146,35.13
24161,35.45
24177,35.45
24193,35.77
24209,35.77
24224,35.77
24240,35.13
24256,35.45
24272,35.77
24287,35.45
24303,35.45
24319,35.45
24335,35.45
24351,35.13
24382,35.45
24398,35.13
24414,35.45
24429,35.45
24445,35.45
24461,35.77
24477,35.45
24492,35.45
24508,35.45
24524,35.77
24540,35.45
24555,35.77
24571,35.77
24587,35.13
24603,35.13
24619,35.77
24634,35.13
24650,35.77
24666,35.45
24682,35.45
24697,35.45
24713,35.13
24729,35.77
24745,35.77
24761,35.77
24776,35.77
24792,35.45
24808,35.77
24824,35.77
24839,35.77
24855,35.45
24871,35.45
24887,35.45
24902,35.45
24918,35.77
24934,35.45
24950,35.13
24965,35.77
24981,35.45
24997,35.13
25013,35.13
25029,34.80
25044,34.80
25060,35.13
25076,35.45
25092,34.16
25107,34.80
25123,35.13
25139,35.13
25155,34.80
25171,34.80
25186,35.13
25202,35.13
25218,35.13
25234,35.13
25249,35.45
25265,35.13
25281,35.45
25297,35.13
25312,35.13
25328,35.13
25344,35.13
25360,34.80
25376,35.13
25391,34.80
25407,34.80
25423,35.13
25439,34.80
25454,34.80
25470,35.13
25486,34.80
25502,35.13
25517,34.80
25533,35.13
25549,35.13
25565,35.45
25581,36.09
25596,36.42
25612,35.13
25675,36.09
25691,36.42
25707,36.74
25722,36.74
25738,37.06
25754,37.38
25770,37.38
25786,37.38
25801,37.38
28464,9.02
28477,7.73
28488,7.09
28498,7.09
28508,7.09
28518,7.09
28528,7.09
28538,7.09
28549,7.09
28560,7.73
28571,6.45
28919,6.77
28932,7.09
28942,7.73
28952,7.09
28962,6.77
28972,6.77
28982,7.73
28992,6.77
29002,6.77
29012,6.77
29022,6.77
29092,7.73
29103,7.09
29113,7.09
29123,6.77
29133,7.09
29143,7.09
29153,7.09
29163,6.77
29173,6.77
29183,7.09
29193,8.38
29203,8.06
29213,7.09
29223,6.45
29233,6.77
29243,6.45
29253,7.09
29263,6.45
29273,6.77
29283,7.73
29293,6.77
29303,6.77
29313,7.09
29323,8.06
29333,7.09
29343,7.73
29353,8.06
29363,8.38
29373,8.38
29383,8.06
29394,8.38
29404,7.73
29415,8.06
29425,7.73
29435,8.06
29446,8.06
29456,7.73
29466,8.06
29476,8.06
29486,7.09
29496,6.77
29506,8.06
29516,7.73
29527,8.06
29537,7.73
29547,7.09
29557,7.73
29567,7.73
29577,7.09
29588,8.06
29598,37.38
29608,38.03
29618,37.71
29628,37.71
29638,37.71
29648,38.03
29659,37.71
29669,38.03
29681,37.71
29697,37.71
29713,38.03
29728,38.03
29744,38.03
29760,37.38
29776,37.71
29791,37.71
29807,38.03
29823,38.03
29839,38.03
29855,37.71
29870,38.03
29886,38.67
29902,38.67
29918,38.03
29933,38.99
29949,38.67
29965,38.03
29981,38.03
29997,38.67
30012,37.71
30028,38.03
30044,37.71
30060,37.71
30075,37.71
30091,37.06
30107,37.38
30123,36.74
30138,37.71
30154,37.38
30170,37.06
30186,37.06
30202,36.74
30217,36.74
30233,37.06
30249,37.06
30265,37.38
30280,36.74
30296,36.42
30312,36.74
30328,36.42
30343,36.74
30359,36.74
30375,36.09
30391,36.09
30407,36.74
30422,36.42
30438,36.42
30454,36.42
30470,36.42
30485,36.42
30501,35.77
30517,36.09
30533,36.09
30549,36.09
30564,36.42
30580,35.77
30596,36.09
30612,36.42
30627,36.09
30643,36.42
30659,36.09
30675,36.42
30690,36.42
30706,36.74
30722,36.74
30738,36.09
30754,36.42
30769,36.42
30785,37.06
30801,36.09
30817,35.45
30832,35.77
30848,36.09
30864,36.42
30880,36.09
30895,36.42
30911,36.09
30927,36.42
30943,36.42
30959,36.09
30974,36.42
30990,36.74
31006,36.74
31022,37.06
31037,37.38
31053,37.71
31069,37.38
31085,37.06
31101,37.38
31116,37.06
31132,37.06
31148,37.38
31164,37.38
31179,37.06
31195,37.38
31211,36.74
31227,37.06
31295,37.38
31305,38.67
31315,38.03
31325,37.38
31335,37.06
31346,36.74
31379,37.06
31390,37.38
31401,37.38
31412,37.38
31467,37.06
31479,37.38
31489,37.71
31499,37.71
31513,37.71
31524,37.38
31535,37.06
31546,37.38
31556,37.06
31567,37.06
31577,37.38
31588,37.06
31598,37.38
31608,37.38
31621,37.38
31637,37.06
31653,37.06
31668,37.06
31684,37.71
31700,37.06
31716,38.03
31731,38.03
31747,38.67
31763,37.71
31779,37.71
31794,37.71
31810,37.38
31826,37.71
31842,37.06
31858,36.74
31873,36.74
31889,37.06
31905,36.74
31921,36.74
31936,36.74
31952,37.06
31968,36.74
31984,36.42
32000,36.42
32015,36.74
32031,36.42
32047,36.09
32063,36.09
32078,36.09
32094,36.09
32110,35.77
32126,35.45
32141,35.77
32157,35.45
32173,35.45
32189,35.45
32205,35.77
32220,35.45
32236,35.77
32252,35.45
32268,35.45
32283,35.13
32299,35.13
32315,35.45
32331,35.45
32346,35.77
32362,35.13
32378,34.16
32394,35.13
32410,35.13
32425,35.13
32441,35.13
32457,35.45
32473,35.13
32488,35.45
32504,35.77
32520,35.77
32536,35.45
32552,35.77
32567,35.45
32583,35.77
32599,36.09
32615,35.77
32630,35.45
32646,35.77
32662,36.09
32678,35.45
32693,36.74
32709,7.73
32725,6.77
32741,6.45
32757,6.45
32772,6.45
32788,6.77
32804,6.77
32820,6.77
32835,7.09
32851,37.06
32867,35.77
32883,35.77
32899,36.09
32914,36.09
32930,36.09
32946,36.09
32962,36.09
32977,35.77
32993,36.42
33009,36.42
33025,36.09
33040,36.74
33056,36.42
33072,36.74
33088,35.77
33104,36.09
33119,36.09
33135,36.09
33151,36.09
33167,35.45
33182,35.77
33198,35.13
33214,35.77
33230,35.45
33245,35.45
33261,35.45
33277,36.09
33293,35.77
33309,35.77
33324,35.45
33340,36.09
33356,36.09
33372,34.80
33387,35.45
33403,35.13
33419,35.45
33435,35.45
33451,36.09
33466,36.42
33482,37.06
33498,37.06
33514,37.06
33529,37.38
33545,37.06
33561,36.74
33577,37.38
33592,37.71
33608,37.71
33624,37.71
33640,37.38
33656,37.71
33671,37.06
33687,37.38
33726,37.71
33738,37.71
33749,37.38
33760,37.38
33771,37.38
37235,37.38
37248,39.32
37258,38.99
37268,38.99
37278,38.03
37288,37.71
37298,38.67
37308,38.03
37318,37.71
37328,38.03
37338,37.06
37348,37.71
37358,37.38
37368,37.06
37379,38.03
37390,14.50
37400,8.06
37410,7.73
37421,7.73
37431,7.09
37441,7.09
37451,6.77
37462,7.73
37472,6.77
37482,7.73
37492,7.09
37502,7.09
37512,6.77
37522,6.45
37532,6.77
37543,6.77
37553,7.09
37563,6.45
37573,6.12
37584,6.12
37595,5.80
37606,5.48
37616,6.12
37626,6.12
37636,5.80
37646,6.12
37656,35.45
37666,35.77
37677,35.45
37688,35.13
37698,35.13
37708,35.45
37718,35.45
37728,35.45
37738,35.45
37749,35.13
37759,60.59
37769,11.60
37779,7.09
37790,6.45
37800,6.12
37810,5.80
37821,5.80
37831,6.45
37841,35.45
37851,35.13
37861,35.77
37872,35.45
37882,36.09
37898,35.45
37914,34.16
37930,34.16
37945,35.45
37961,35.77
37977,35.77
37993,35.13
38009,35.13
38024,35.45
38040,35.45
38056,36.09
38072,35.45
38087,35.45
38103,35.45
38119,36.09
38135,35.77
38151,35.45
38166,35.77
38182,35.77
38198,36.09
38214,35.45
38229,35.77
38245,35.77
38261,35.45
38277,35.45
38292,35.13
38308,35.13
38324,35.13
38340,34.16
38356,34.80
38371,35.45
38387,35.77
38403,34.16
38419,34.16
38434,34.80
38450,35.13
38466,34.80
38482,34.80
38497,35.13
38513,34.80
38529,35.77
38545,35.77
38561,35.77
38576,35.77
38592,35.77
38608,34.80
38624,35.13
38639,35.45
38655,35.45
38671,35.45
38687,35.45
38702,34.80
38718,35.45
38734,35.13
38750,35.77
38766,35.13
38781,35.13
38797,34.80
38813,34.80
38829,35.13
38844,35.13
38860,35.13
38876,35.13
38892,35.45
38908,35.13
38923,33.84
38939,34.80
38955,34.80
38971,34.80
38986,35.13
39002,35.13
39018,34.16
39034,34.80
39049,35.13
39065,35.13
39081,34.80
39097,35.13
39113,35.13
39128,34.80
39144,35.13
39160,34.80
39176,34.80
39191,35.13
39207,35.13
39223,34.16
39239,34.16
39255,34.80
39270,34.16
39286,34.16
39302,34.80
39318,34.80
39333,34.80
39349,34.80
39424,33.84
39437,34.16
39448,34.80
39458,34.16
39468,33.52
39478,33.19
39488,33.52
39498,33.52
39509,33.84
39519,33.84
39531,33.19
39541,33.52
39562,33.84
39573,33.84
39586,33.52
39601,34.16
39617,34.16
39633,34.16
39649,34.16
39665,34.16
39680,33.84
39696,33.52
39712,33.52
39728,33.84
39743,33.52
39759,33.52
39775,33.84
39791,33.84
39807,33.84
39822,33.52
39838,33.84
39854,33.84
39870,33.52
39885,33.19
39901,33.19
39917,33.52
39933,33.52
39948,33.84
39964,34.16
39980,33.84
39996,33.84
40012,34.16
40027,33.84
40043,34.16
40059,33.52
40075,34.16
40090,34.80
40106,33.84
40122,33.52
40138,33.84
40153,34.16
40169,34.16
40185,33.52
40201,33.84
40217,33.84
40232,33.84
40248,33.84
40264,33.84
40280,33.84
40295,33.84
40311,33.84
40327,33.84
40343,33.52
40358,33.84
40374,34.16
40390,33.84
40406,33.84
40422,33.84
40437,33.84
40453,33.84
40469,33.84
40485,33.84
40500,33.84
40516,34.80
40532,34.16
40548,33.19
40564,33.84
40579,33.52
40595,33.52
40611,33.52
40627,33.84
40642,33.52
40658,34.16
40674,34.80
40690,34.80
40705,34.16
40721,34.80
40737,33.84
40753,33.84
40769,33.84
40784,33.84
40800,33.84
40816,33.84
40832,33.84
40847,33.84
40863,33.84
40879,33.84
40895,33.84
40910,33.84
40926,33.84
40942,33.84
40958,33.84
40974,33.84
40989,33.84
41005,33.84
41021,33.84
41037,33.52
41052,33.52
41068,33.84
41084,33.84
41100,33.84
41115,33.84
41131,33.84
41147,33.84
41163,33.84
41179,34.16
41194,33.84
41210,33.84
41226,33.84
41242,33.84
41257,33.84
41273,33.84
41289,34.80
41305,33.84
41320,34.16
41336,33.84
41352,33.52
41368,33.52
41384,33.52
41399,33.52
41415,33.52
41431,33.52
41447,33.19
41462,34.16
41478,34.16
41494,33.19
41510,33.19
41526,33.19
41541,33.84
41557,33.52
41573,33.52
41589,33.84
41604,33.52
41620,33.52
41636,33.84
41652,34.16
41667,33.84
41683,34.16
41699,33.52
41715,33.52
41731,33.84
41746,33.84
41762,33.52
41778,33.52
41794,33.19
41809,33.52
41825,33.84
41841,33.52
41857,33.52
41872,33.84
41888,33.52
41904,33.84
41920,33.84
41936,33.52
41951,33.52
41967,33.84
43184,5.16
43197,4.51
43207,4.83
43217,4.19
43227,33.52
43237,33.19
43247,33.19
43257,33.19
43267,33.52
43277,33.52
43287,33.84
43297,33.52
43307,33.52
43318,32.87
43328,33.52
43338,33.19
43348,33.19
43358,33.52
43368,33.84
43378,34.16
43388,33.84
43398,34.80
43409,34.80
43419,35.13
43429,34.16
43439,34.80
43450,34.80
43460,34.80
43470,35.13
43480,34.80
43490,35.45
43500,36.42
43510,36.09
43520,36.09
43531,36.42
43541,37.38
43551,37.06
43561,37.71
43571,37.38
43581,37.38
43592,37.38
43602,38.67
43612,38.03
43622,38.03
43632,37.71
43642,37.06
43652,37.71
43663,37.38
43673,37.71
43683,38.03
43693,37.38
43703,37.71
43713,37.71
43723,37.06
43734,37.38
43744,37.71
43754,37.38
43764,37.71
43774,37.38
43784,37.38
43797,37.06
43812,37.71
43828,37.71
43844,37.71
43860,37.38
43876,37.71
43891,37.71
43907,38.03
43923,37.38
43939,37.38
43954,37.38
43970,37.71
43986,37.38
44002,37.38
44017,38.03
44033,37.71
44049,36.42
44065,36.74
44081,37.71
44096,37.38
44112,37.71
44128,38.67
44144,38.03
44159,38.67
44175,38.03
44191,38.03
44207,38.03
44223,38.03
44238,38.67
44254,38.03
44270,38.99
44286,38.03
44301,38.67
44317,38.67
44333,38.67
44349,38.67
44364,38.99
44380,38.67
44396,37.71
44412,37.38
44428,37.71
44443,37.71
44459,38.67
44475,37.71
44491,38.03
44506,38.03
44522,37.71
44538,38.03
44554,37.71
44570,37.71
44585,38.03
44601,37.71
44617,37.38
44633,37.71
44648,37.38
44664,37.71
44680,38.03
44696,37.38
44711,37.71
44727,37.71
44743,37.71
44759,37.71
44775,37.71
44790,37.71
44806,37.38
44822,37.71
44838,37.38
44853,37.38
44869,37.06
44885,37.71
44901,37.06
44916,37.71
44932,37.71
44948,37.06
44964,37.06
44980,37.38
44995,37.71
45011,37.38
45027,38.03
45043,37.38
45059,37.38
45074,37.38
45090,37.38
45106,37.38
45121,38.03
45137,38.99
45153,37.71
45169,37.38
45185,37.38
45200,37.71
45216,37.71
45232,37.71
45248,37.71
45263,37.71
45279,38.99
45295,38.67
45311,38.99
45326,39.64
45342,38.67
45358,37.38
45374,38.03
45390,37.71
45405,38.67
45421,38.03
45437,37.71
45453,38.03
45468,38.03
45484,38.03
45500,38.67
45516,37.38
45532,37.71
45547,37.71
45563,38.67
45579,37.71
45595,37.06
45610,37.38
45626,37.71
45642,37.71
45658,37.71
45674,38.99
45689,37.71
45705,37.71
45721,37.71
45737,37.06
45752,37.38
45768,37.71
45784,38.67
45800,38.03
45815,37.71
52983,35.77
52996,35.77
53006,35.13
53016,34.16
53026,34.80
53036,34.80
53046,34.80
53056,34.80
53066,34.80
53076,35.13
53086,35.13
53096,35.13
53106,35.13
53116,35.13
53126,35.13
53136,35.13
53146,34.80
53156,35.13
53166,35.13
53176,35.13
53186,35.13
53196,35.13
53206,34.80
53216,35.13
53226,34.80
53236,34.80
53246,35.13
53256,34.80
53266,34.16
53276,35.13
53286,35.13
53296,34.80
53306,34.80
53316,34.80
53326,35.13
53336,35.13
53346,34.16
53356,35.13
53366,34.80
53376,34.80
53386,34.80
53396,34.80
53406,35.13
53417,34.80
53427,35.13
53437,34.80
53448,35.13
53458,34.16
53468,33.84
53478,34.16
53488,34.80
53498,35.45
53508,34.80
53518,34.80
53529,35.13
53539,34.80
53549,34.80
53559,34.80
53569,35.13
53579,35.13
53590,35.13
53606,34.80
53622,35.13
53638,35.13
53654,35.45
53669,35.45
53685,35.13
53701,35.13
53717,34.80
53732,35.13
53748,35.13
53764,35.13
53780,34.16
53795,34.80
53811,34.80
53827,34.80
53843,34.80
53859,35.13
53874,34.80
53890,34.16
53906,35.45
53922,34.16
53937,35.13
53953,34.16
53968,33.84
53985,33.52
54001,33.52
54016,33.84
54032,34.16
54048,34.80
54064,35.77
54079,35.45
54095,35.13
54111,34.80
54126,34.80
54142,13.21
54158,6.12
54174,6.12
54189,6.45
54205,6.12
54220,35.45
54236,35.45
54253,35.45
54268,9.35
54284,35.13
54300,34.80
54316,33.52
54332,34.16
54347,33.84
54363,34.16
54379,34.16
54395,33.52
54410,35.13
54426,32.87
54442,7.73
54458,6.45
54473,35.13
54489,51.88
54505,33.52
54521,33.52
54537,33.84
54552,35.13
54568,34.80
54584,33.19
54600,32.87
54615,32.87
54631,29.33
54647,7.09
54663,6.45
54679,6.45
54694,6.45
54710,5.48
54726,4.19
54742,5.48
54757,6.45
54772,35.45
54789,35.13
54805,35.13
54819,35.13
54836,33.52
54852,37.71
54868,8.06
54883,8.06
54899,6.12
54915,40.28
54931,8.38
54947,35.13
54962,29.65
54978,35.45
54994,5.80
55010,33.19
55025,33.52
55041,33.52
55057,34.80
55073,13.21
55088,6.12
55104,33.84
55120,34.16
55136,34.16
55152,33.84
55167,9.02
55183,35.45
55199,36.09
55215,36.42
55230,59.94
55246,9.02
55262,8.38
55278,7.09
55294,6.77
55309,6.77
55325,7.09
55341,6.77
55357,6.77
55372,6.45
55387,7.73
55404,9.02
55420,9.02
55539,34.16
55552,33.84
55562,34.16
55572,33.84
55582,33.84
55592,33.84
55602,33.19
55613,33.84
55623,34.80
55633,34.80
55659,33.52
55671,33.52
55682,34.80
55692,34.16
55702,33.52
55713,34.16
55723,34.80
55734,34.80
55744,33.84
55754,33.52
55764,34.16
55774,33.19
55784,34.16
55797,34.80
55813,35.13
55828,35.13
55845,34.80
55861,35.13
55877,34.80
55892,11.92
55908,5.48
55924,34.16
55939,33.52
55954,34.16
55971,34.16
55987,33.84
56002,8.38
56018,33.19
56034,33.52
56050,33.52
56066,33.19
56082,33.52
56097,34.16
56113,34.80
56129,29.00
56145,5.16
56160,4.51
56176,6.12
56192,4.51
56207,33.52
56223,33.84
56239,5.80
56255,6.12
56271,4.83
56287,4.51
56302,4.83
56317,33.19
56334,33.84
56350,34.80
56365,34.80
56381,35.77
56397,35.45
56413,21.91
56428,32.87
56444,34.16
56460,34.80
56476,25.46
56492,35.77
56507,35.45
56523,9.67
56538,6.45
56555,35.13
56570,35.45
56586,35.13
56602,34.80
56618,34.16
56632,33.19
56649,33.52
56665,33.52
56681,33.84
56696,35.45
56712,35.45
56728,35.13
56744,35.45
56760,35.45
56775,36.09
56790,36.74
56807,36.09
56823,35.45
56838,35.77
56854,35.77
56870,36.09
56886,36.09
56901,37.71
56917,27.39
56933,8.70
56949,36.09
56965,35.45
56980,33.84
56996,33.84
57012,35.13
57028,33.84
57043,35.13
57059,34.80
57075,35.45
57091,34.80
57106,35.13
57121,35.45
57138,33.52
57154,33.19
57170,33.52
57184,33.84
57201,34.80
57217,34.80
57233,34.80
57248,34.80
57264,34.16
57279,35.13
57296,34.80
57310,35.77
57327,35.45
57342,12.57
57359,5.80
57374,5.80
57390,5.16
57406,4.19
57422,5.16
57437,5.16
57452,7.09
57469,36.74
57485,35.13
57501,36.09
57516,34.80
57532,34.16
57547,34.16
57564,34.80
57579,34.80
57595,34.80
57611,35.13
57627,33.52
57642,33.52
57658,34.80
57674,34.80
57690,34.80
57705,33.52
57721,12.57
57737,6.45
57753,6.12
57768,6.12
57784,5.80
57863,33.52
57876,33.19
57886,33.52
57896,33.19
57906,34.80
57916,35.13
57926,35.13
57936,33.52
57946,33.52
57956,33.84
57966,35.13
57976,35.13
57989,34.80
58005,35.13
58020,33.19
58070,33.19
58081,33.19
58091,33.52
58101,34.80
58111,34.80
58122,33.19
58132,34.80
58147,32.87
59158,5.16
59170,4.83
59180,5.80
59190,5.48
59200,5.48
59210,5.48
59220,5.16
59230,5.48
59240,5.48
59250,33.84
59260,33.84
59270,34.16
59280,34.16
59290,33.19
59300,32.55
59310,33.19
59320,33.19
59330,32.87
59340,32.87
59350,33.84
59360,34.80
59370,34.16
59380,52.53
59390,41.89
59401,6.12
59412,33.84
59422,48.02
59432,7.73
59442,32.87
59452,24.17
59463,6.77
59474,5.48
59484,32.87
59494,32.55
59504,32.87
59514,32.55
59524,32.55
59535,32.23
59545,32.55
59555,32.55
59565,32.55
59575,33.52
59585,34.16
59596,34.80
59607,35.45
59617,35.13
59627,21.27
59637,5.80
59647,5.16
59657,5.80
59668,5.48
59678,5.16
59688,5.80
59698,5.80
59709,5.80
59719,5.80
59729,6.45
59740,5.16
59750,5.80
59760,34.80
59770,34.80
59780,35.13
59790,34.16
59803,34.16
59819,38.67
59834,36.74
59850,33.52
59866,33.19
59882,33.84
59897,27.71
59913,4.51
59929,3.22
59945,3.22
59961,32.55
59976,33.19
59992,33.52
60008,33.19
60024,32.55
60039,32.55
60055,32.23
60071,32.55
60087,33.52
60102,33.84
60118,33.84
60134,33.19
60150,33.19
60166,33.84
60181,33.52
60197,35.13
60213,33.52
60229,5.16
60244,4.51
60260,35.77
60276,37.38
60292,38.03
60308,36.74
60323,21.27
60339,12.57
60355,33.52
60371,33.52
60386,33.52
60402,33.84
60418,33.52
60434,32.23
60449,32.23
60465,32.23
60481,32.23
60497,33.52
60513,33.19
60529,33.19
60544,32.87
60560,32.55
60576,33.52
60591,32.87
60607,33.52
60623,35.45
60639,5.16
60654,5.16
60670,7.09
60686,7.09
60702,5.80
60718,7.09
60733,6.45
60749,9.35
60765,7.09
60781,9.35
60796,9.99
60812,39.32
60827,33.84
60844,33.52
60859,33.52
60875,33.52
60891,33.52
60907,34.80
60923,34.16
60938,33.84
60954,33.84
60970,33.52
60986,32.23
61001,31.90
61017,32.23
61033,32.23
61049,32.55
61065,33.52
61080,33.52
61096,33.19
61112,34.16
61128,33.52
61143,32.87
61159,32.55
61175,33.19
61191,33.52
61206,33.84
61222,34.16
61238,33.52
61254,33.19
61270,34.16
61285,34.16
61301,33.52
61317,33.84
61333,33.84
61348,33.52
61364,32.55
61380,32.23
61396,32.23
61411,32.87
61427,33.52
61443,33.19
61644,33.84
61657,33.52
61668,33.84
61679,33.52
61689,33.84
61699,33.84
61709,33.52
61719,32.23
61729,32.55
61740,32.23
61751,32.55
61761,32.23
61771,32.55
61781,32.55
61791,32.55
61801,32.55
61812,32.23
61822,32.23
61832,32.23
61843,33.19
61854,33.19
61865,33.52
61875,33.19
61885,33.52
61895,33.19
61905,33.19
61915,33.19
61925,33.19
61935,33.52
61945,33.19
61955,33.19
61965,33.19
61975,34.16
61985,33.52
61995,33.84
62011,33.84
62026,33.84
62042,33.52
62057,33.52
62074,33.52
62089,9.67
62105,5.48
62121,5.48
62136,33.19
62152,33.52
62168,33.52
62184,33.19
62200,33.52
62215,33.84
62231,32.87
62247,33.52
62263,68.00
62279,6.12
62294,4.83
62310,33.19
62326,32.87
62341,33.19
62357,33.19
62373,33.19
62389,32.55
62405,32.23
62421,32.23
62436,32.23
62452,32.87
62468,32.87
62484,33.19
62499,8.38
62515,32.87
62531,44.79
62547,5.80
62562,5.16
62578,5.16
62594,5.48
62610,5.48
62626,5.16
62641,5.16
62657,5.48
62673,5.48
62689,5.16
62704,5.16
62720,24.17
62736,3.87
62752,29.33
62768,6.12
62783,4.83
62799,33.52
62815,33.52
62831,33.52
62846,33.52
62862,32.55
62877,32.23
62894,32.55
62909,32.23
62924,31.90
62941,31.90
62956,32.23
62972,32.23
62988,32.23
63004,32.55
63020,32.87
63035,33.52
63051,33.19
63067,32.55
63083,32.87
63099,7.73
63114,5.48
63130,47.05
63146,6.12
63162,4.51
63177,5.48
63193,5.48
63209,5.16
63225,4.83
63240,4.83
63255,4.51
63272,4.19
63288,32.87
63304,33.84
63319,33.52
63334,33.52
63351,33.84
63367,32.55
63382,32.55
63398,32.23
63414,32.23
63430,33.52
63445,32.23
63461,32.23
63477,31.90
63492,32.55
63509,33.52
63524,32.87
63540,32.87
63556,33.19
63571,32.87
63587,32.87
63603,32.87
63619,6.45
63634,5.48
63650,5.16
63666,5.48
63682,5.16
63697,7.09
63998,32.23
64011,32.23
64021,32.55
64031,32.23
64041,32.87
64051,33.19
64061,32.87
64071,32.87
64081,33.19
64091,33.84
64101,34.16
64111,33.84
64122,32.23
64132,32.55
64142,32.55
64176,33.52
64187,34.80
64197,36.74
64208,37.06
64218,37.71
64301,38.67
64312,35.13
64322,37.71
64332,37.71
64342,37.06
64355,34.80
64366,32.87
64377,33.52
64388,33.52
64398,33.19
64409,33.19
64420,32.87
64430,33.19
64440,33.84
64450,33.84
64460,33.52
64471,33.19
64481,33.19
64491,33.19
64501,31.90
64511,32.23
64522,32.23
64532,32.23
64542,32.23
64553,32.55
64564,32.55
64574,32.55
64584,33.19
64594,32.87
64605,32.55
64615,32.55
64625,32.87
64635,33.19
64645,33.19
64655,33.19
64665,33.52
64675,33.52
64686,33.19
64696,33.52
64706,32.87
64716,33.52
64726,34.16
64736,33.84
64746,33.84
64757,34.16
64767,33.52
64777,33.84
64787,34.16
64797,34.16
64808,33.84
64818,33.84
64833,34.80
64848,35.45
64864,33.52
64880,32.23
64896,32.23
64911,32.23
64927,33.52
64943,33.84
64958,34.16
64975,32.55
64990,32.23
65005,31.90
65021,31.90
65037,33.19
65053,32.87
65068,32.23
65085,32.23
65100,32.23
65115,33.52
65131,32.55
65148,32.23
65164,8.06
65179,5.48
65195,4.19
65211,4.83
65227,3.87
65241,4.19
65258,4.51
65274,5.16
65289,4.83
65304,5.16
65320,5.16
65337,5.16
65353,3.87
65368,3.22
65384,3.22
65400,33.52
65415,33.19
65431,33.52
65447,33.19
65463,33.52
65479,33.52
65495,33.52
65510,33.19
65526,32.23
65542,32.23
65558,32.23
65573,32.23
65589,7.09
65605,31.90
65621,5.80
65636,5.16
65651,3.22
65667,3.22
65684,3.22
65699,2.90
65715,4.83
65731,2.90
65747,2.90
65762,2.90
65778,2.90
65793,3.22
65810,2.90
65826,2.58
65841,2.90
65857,2.90
65873,2.90
65889,4.19
65904,4.83
65919,4.83
65936,4.19
65952,44.15
65967,33.52
65983,33.52
65999,33.52
66015,32.23
66031,32.87
66046,32.87
66062,32.87
66078,32.55
66094,32.23
66109,32.23
66125,15.79
66141,5.48
66157,5.16
66173,2.90
66188,4.83
66204,5.16
66220,5.48
66236,5.16
66251,4.83
66267,4.83
66283,33.19
66299,33.52
66314,33.19
66330,33.84
66346,33.19
66362,33.84
66378,33.84
66393,33.19
66409,63.81
66425,5.80
66441,4.51
66456,5.48
66472,5.16
66506,5.48
66518,5.48
66529,33.52
66539,33.19
66551,32.87
66567,32.55
66583,32.87
66598,32.87
66614,32.87
66651,8.70
66662,5.80
66673,5.48
66683,4.83
66693,4.19
66709,4.51
66725,5.16
66740,5.48
66790,5.16
66803,5.16
66813,5.48
66824,5.80
66834,34.16
66845,34.16
66856,34.80
66867,33.19
66882,32.87
66898,48.66
66914,6.45
66930,4.83
66945,32.87
66961,32.87
66977,33.19
66993,33.19
67008,32.87
67024,32.87
67040,33.19
67056,32.87
67071,33.52
67087,33.52
67103,32.23
67119,32.23
67135,33.19
67150,33.84
67166,23.85
67182,6.12
67198,5.80
67213,5.48
67229,6.45
67245,5.16
67261,7.09
67276,7.09
67292,7.09
67308,9.02
67324,9.67
67340,9.35
67355,9.02
67371,37.06
67387,37.06
67403,36.42
67418,28.36
67434,4.51
67450,33.84
67466,36.42
67482,5.80
67497,2.90
67513,2.90
67529,3.22
67545,3.22
67560,31.90
67576,32.23
67592,32.23
67608,32.23
67623,31.90
67639,32.23
67655,32.23
67671,32.55
67687,33.52
67702,23.20
67718,5.16
67734,3.22
67750,2.90
67765,4.51
67781,3.22
67797,5.16
67813,5.48
67829,6.77
67844,5.80
67860,5.48
67876,5.48
67892,33.52
67907,33.84
67923,32.87
67939,33.52
67955,33.52
67970,33.84
67986,33.84
68002,33.84
68018,32.23
68034,32.55
68049,32.55
68065,33.84
68081,33.52
68097,32.87
68112,32.87
68128,32.87
68144,31.90
68160,32.87
68175,32.55
68191,32.87
68207,33.19
68223,32.87
68239,39.96
68254,5.16
68270,3.87
68286,4.83
68302,6.12
68317,7.09
68333,35.77
68349,37.38
68365,32.87
68381,9.67
68396,9.35
68412,8.70
68428,8.38
68444,8.06
68459,3.22
68475,3.22
68491,32.87
68507,33.19
68522,33.52
68538,33.52
68554,31.90
68570,31.90
68586,31.90
68601,33.19
68617,32.87
68633,32.23
68649,31.90
68664,32.87
68680,32.55
68696,32.23
68712,33.19
68727,32.87
68743,33.19
68759,33.19
68775,33.19
68791,5.48
68806,5.48
68822,6.12
68838,5.48
68854,5.16
68869,6.77
68885,8.06
68901,9.02
68917,7.09
68932,7.09
68948,6.45
68964,2.90
68980,3.22
68996,33.19
69011,33.52
69027,33.52
69058,32.87
69069,32.55
69079,32.23
69090,32.23
69106,32.87
69122,33.19
69138,33.52
69153,33.84
69183,32.55
69194,32.55
69204,33.52
69216,34.16
69232,33.84
69248,33.52
69264,32.87
69279,31.90
69323,5.80
69333,6.45
69343,8.38
69354,7.73
69365,6.77
69376,7.73
69390,9.67
69406,9.35
69421,8.06
69437,38.03
69453,72.19
69469,53.50
69485,4.83
69500,32.55
69516,32.55
69532,33.52
69548,33.19
69563,33.52
69579,32.23
69595,31.90
69611,31.90
69626,31.90
69642,32.55
69658,32.23
69674,31.90
69690,32.23
69705,32.55
69721,32.23
69737,32.55
69753,33.19
69768,33.19
69784,32.87
69800,17.08
69816,4.51
69831,32.23
69847,47.37
69863,6.12
69879,5.48
69895,35.45
69910,34.80
69926,34.80
69942,10.96
69958,5.48
69973,5.80
69989,5.16
70005,2.90
70021,2.58
70036,32.23
70052,33.19
70068,33.19
70084,33.52
70100,33.19
70115,31.58
70131,31.90
70147,31.90
70163,32.87
70178,33.19
70194,32.55
70210,32.55
70226,33.19
70242,33.19
70257,33.52
70273,33.84
70289,33.19
70305,32.87
70320,31.90
70336,32.23
70352,33.52
70368,34.16
70383,37.71
70399,37.71
70415,21.27
70431,37.38
70447,37.71
70462,37.38
70478,36.74
70494,38.03
70510,21.27
70525,33.84
70541,32.23
70557,33.19
70573,32.55
70589,32.87
70604,32.55
70620,32.55
70636,33.19
70652,31.90
70667,32.87
70683,32.87
70699,31.90
70715,31.90
70730,32.23
70746,32.55
70762,32.23
70778,32.55
70794,33.19
70809,32.87
70825,33.19
70841,33.19
70857,33.84
70872,34.16
70888,33.84
70904,33.52
70920,32.87
70935,35.45
70951,34.16
70967,32.87
70983,27.39
70999,5.80
71014,32.23
71030,33.19
71046,32.55
71062,32.87
71077,32.87
71093,32.55
71109,32.55
71125,33.19
71140,33.19
71156,33.19
71172,31.90
71188,31.90
71204,31.90
71219,31.90
71235,32.23
71251,33.52
71267,33.52
71282,32.23
71298,32.23
71314,33.19
71330,33.84
71345,34.16
71361,34.80
71377,34.80
71393,33.52
71409,34.16
71424,34.80
71440,33.19
71456,31.90
71472,31.90
71487,31.58
71503,30.94
71519,31.58
71535,31.90
71551,32.23
71566,32.55
71582,32.55
71631,32.55
71644,32.55
71654,32.87
71664,32.87
71675,32.23
71686,32.55
71696,32.87
71708,33.52
71724,33.19
71740,33.52
71756,32.23
