15942,659,285
15952,315,393,262
15962,311,190,261
15972,440,366,319
15982,334,549,405
15992,480,471,408
16002,334,411,363
16012,592,599,387
16022,672,574,394
16032,370,392,420
16042,293,276,426
16052,497,527,423
16062,349,590,417
16072,452,472,450
16082,345,612,426
16092,366,615,430
16102,328,614,447
16112,319,308,494
16122,327,548,511
16132,340,120,523
16142,352,605,483
16152,372,434,481
16162,478,595,473
16172,508,616,495
16182,416,361,412
16192,323,617,418
16202,461,401,424
16212,528,285,387
16222,681,302,317
16232,410,548,288
16242,323,440,321
16252,653,505,358
16262,425,591,368
16272,322,547,385
16282,588,589,388
16292,322,552,378
16302,462,625,360
16312,284,167,372
16322,340,580,369
16332,345,488,360
16342,655,418,364
16352,366,596,413
16362,617,627,386
16372,473,542,397
16382,303,586,394
16392,348,595,424
16402,290,574,406
16412,599,559,425
16422,420,454,394
16432,401,541,421
16442,658,488,423
16452,424,490,420
16462,410,543,426
16478,598,351,414
16940,,544,384
16951,332,565,399
16961,371,522,368
16971,285,256,349
16981,277,537,328
16991,328,151,374
17001,248,333,325
17011,291,338,314
17021,309,348,285
17031,300,638,333
17041,498,639,339
17051,764,331,339
17061,446,549,348
17071,726,315,400
17081,376,656,445
17091,306,292,365
17101,289,452,383
17111,403,586,362
17121,491,567,363
17131,495,526,353
17141,540,539,378
17151,319,516,402
17161,676,611,392
17171,427,604,375
17181,606,556,458
17191,399,561,348
17201,430,592,398
17211,505,263,414
17221,513,615,383
17231,399,605,396
17241,391,320,406
17251,450,586,428
17261,320,584,410
17271,336,600,391
17281,331,573,368
17291,327,601,359
17301,584,238,363
17311,315,591,362
17321,591,592,348
17331,300,346,356
17341,292,272,312
17351,491,652,334
17361,322,605,341
17371,436,483,332
17381,485,608,370
17391,391,665,375
17401,594,636,391
17411,645,616,363
17421,466,423,365
17431,712,368,385
17441,545,635,373
17451,374,631,371
17461,405,635,375
17477,333,428,388
17493,343,420,399
17509,309,646,383
17524,315,599,403
17540,408,310,391
17556,491,113,409
17572,484,569,410
17587,395,74,414
17604,356,258,441
17619,532,624,416
17635,472,350,420
17651,364,577,436
17667,354,609,411
17683,330,576,364
17698,315,403,352
17714,439,608,325
17730,724,617,319
17746,329,610,310
17762,321,359,347
17778,410,476,322
17793,328,286,364
17809,345,288,393
17825,383,688,389
17841,490,590,358
17857,318,583,377
17872,320,477,383
17888,316,464,361
17904,565,664,423
17920,398,675,377
17936,351,557,411
17952,324,153,394
17967,369,532,361
17983,664,550,390
17999,300,577,393
18015,367,611,409
18031,409,549,371
18047,421,532,397
18062,485,554,428
18078,475,404,415
18094,411,544,418
18110,520,533,436
18126,450,561,429
18141,433,528,420
18157,298,547,416
18173,319,552,389
18189,465,463,354
18205,273,370,392
18220,435,303,367
18236,304,609,405
18252,317,605,353
18268,286,659,372
18284,324,527,343
18300,492,659,315
18315,341,317,290
18331,662,686,310
18347,284,209,411
18363,466,642,414
18379,689,577,356
18394,358,644,385
18410,255,342,392
18426,424,395,386
18442,433,564,341
18458,368,547,394
18474,270,293,373
18489,284,363,364
18505,546,627,358
18521,372,183,373
18537,491,563,388
18553,320,618,396
18568,404,570,408
18584,482,467,413
18600,593,670,422
18616,558,426,407
18632,390,559,401
18648,365,295,384
18663,356,162,412
18679,398,204,420
18695,360,639,422
18711,350,582,402
18727,474,564,452
18742,318,563,392
18758,426,660,380
18774,447,149,381
18789,302,80,379
18806,502,315,392
18821,286,518,343
18837,341,373,385
18853,329,496,339
18869,378,626,333
18885,454,351,359
18901,527,671,423
18916,632,630,383
18932,332,285,379
18948,321,338,398
18964,529,618,385
18980,596,222,415
18995,305,239,295
19011,665,377,343
19027,658,393,390
19043,296,356,385
19059,301,345,350
19075,623,603,366
19090,332,197,359
19106,428,486,395
19122,427,383,402
19138,438,137,433
19154,383,617,428
19169,476,545,414
19185,316,553,403
19201,346,559,418
19217,323,549,389
19233,374,543,436
19249,390,343,465
19264,329,596,459
19280,286,586,481
19294,400,5,379
19312,288,240,378
19328,472,350,385
19343,273,448,347
19359,600,425,368
19375,726,586,379
19391,317,362,340
19407,608,418,350
19422,390,554,354
19438,468,554,379
19454,413,629,334
19470,502,616,389
19486,627,598,334
19502,464,432,398
19517,438,482,367
19533,387,209,364
19549,346,322,371
19565,298,648,352
19581,327,606,351
19596,322,349,375
19612,306,400,362
19627,306,96,380
19644,349,357,390
19660,376,616,368
19675,430,208,387
19691,322,314,382
19707,321,137,391
19723,310,610,373
19739,425,617,371
19755,280,270,374
19770,356,503,387
19786,261,145,400
19802,487,546,433
19818,682,335,460
19834,318,636,422
19849,435,195,353
19865,311,310,348
19881,353,621,349
19897,430,634,340
19913,327,622,364
19929,537,572,346
19944,695,576,377
19960,316,280,343
19976,326,533,351
19992,341,622,354
20008,317,622,330
20023,492,491,342
20039,443,641,356
20055,339,626,388
20071,408,365,366
20087,325,569,396
20103,455,539,397
20118,474,544,409
20134,421,562,426
20150,493,555,435
20166,418,616,394
20182,320,587,378
20197,385,543,331
20213,299,514,326
20229,312,326,378
20245,297,569,355
20261,285,342,354
20277,297,649,353
20292,291,391,367
20308,326,651,351
20324,303,652,345
20340,309,256,335
20356,303,515,336
20371,454,264,334
20387,376,359,375
20403,412,537,360
20419,458,550,364
20435,274,313,436
20451,469,633,346
20466,495,641,373
20482,498,565,376
20498,509,541,353
20514,408,565,336
20530,501,661,363
20545,509,661,356
20561,505,460,356
20577,471,594,350
20593,511,419,369
20609,514,339,354
20623,506,72,382
20640,511,167,406
20656,482,450,364
20672,472,522,403
20688,435,176,397
20704,495,349,385
20719,431,603,358
20735,446,649,349
20751,365,484,342
20767,322,464,346
20783,270,634,350
20798,262,618,350
20814,335,239,346
20830,271,623,352
20846,256,391,329
20862,282,409,321
20877,324,386,340
20893,282,409,325
20909,279,669,332
20925,307,635,334
20941,325,161,318
20957,349,458,375
20972,281,536,373
20988,442,617,386
21004,372,458,377
21020,395,614,376
21036,599,625,348
21051,364,629,357
21067,278,608,345
21083,409,597,361
21099,423,557,337
21115,563,535,356
21131,708,224,380
21146,385,435,351
21162,391,585,357
21178,290,231,347
21194,470,498,331
21210,374,570,343
21225,310,558,348
21241,391,528,386
21257,285,130,347
21273,281,358,342
21289,455,430,347
21305,256,660,351
21320,289,462,342
21336,635,616,368
21352,340,527,345
21368,477,385,360
21384,717,373,378
21399,306,641,357
21415,367,625,357
21431,425,435,364
21447,421,413,382
21463,313,204,384
21479,362,592,316
21494,489,310,316
21510,510,548,327
21526,483,191,379
21542,502,404,346
21558,509,399,331
21573,511,339,348
21589,507,694,347
21605,506,651,344
21621,353,270,337
21637,295,407,342
21653,303,253,329
21668,355,420,360
21684,374,650,441
21700,369,663,359
21716,432,636,352
21732,316,408,355
21747,311,245,353
21763,612,421,356
21779,321,338,351
21795,460,385,360
21811,510,194,398
21827,410,559,411
21842,548,616,375
21858,478,422,337
21874,623,594,388
21890,291,594,377
21906,447,567,368
21921,504,291,377
21937,718,466,372
21953,563,259,335
21969,513,671,345
21985,464,281,355
22000,693,655,372
22016,331,663,372
22032,281,611,384
22048,337,486,391
22064,376,584,380
22080,294,571,393
22095,252,303,392
22111,281,255,392
22127,297,602,389
22143,473,631,386
22159,502,617,350
22174,474,422,325
22190,499,645,324
22206,500,506,311
22222,514,502,335
22238,514,191,327
22254,519,302,424
22269,299,464,330
22285,303,237,336
22301,401,378,364
22317,340,457,378
22333,300,223,408
22348,569,580,390
22364,492,641,411
22380,551,482,395
22396,399,331,387
22412,305,254,393
22428,372,622,352
22443,497,133,352
22459,574,627,342
22475,261,585,353
22491,427,564,363
22507,542,272,362
22522,376,583,376
22538,275,551,359
22554,467,571,340
22570,424,452,339
22586,686,588,326
22602,259,627,348
22617,293,456,355
22633,630,336,344
22649,267,652,358
22665,302,569,360
22681,390,565,376
22696,300,346,380
22712,682,622,372
22728,308,633,348
22744,272,218,376
22760,454,187,389
22776,503,610,408
22791,511,662,401
22807,483,192,353
22823,454,429,351
22839,333,453,349
22855,321,490,361
22871,331,525,389
22886,758,468,383
22902,333,251,385
22918,327,381,354
22934,315,637,375
22950,319,660,377
22965,504,475,393
22981,313,111,335
22997,596,647,359
23013,696,624,348
23029,284,270,337
23044,451,638,331
23060,353,589,339
23076,271,367,345
23092,385,303,396
23108,470,278,365
23124,420,548,366
23139,495,556,360
23155,409,556,319
23171,505,584,333
23187,455,578,338
23203,355,544,348
23218,438,389,370
23234,560,582,395
23250,535,472,355
23266,274,239,344
23282,266,611,342
23298,576,420,361
23313,288,660,374
23329,340,619,367
23345,552,258,359
23361,265,666,380
23377,542,637,384
23392,476,635,409
23408,559,582,411
23424,413,413,394
23440,338,641,393
23456,488,500,412
23472,469,605,328
23487,466,195,288
23503,496,318,300
23519,421,563,345
23535,455,522,369
23551,367,513,374
23566,439,553,372
23582,295,538,341
23598,315,624,361
23614,303,453,345
23694,494,457,335
23704,353,592,342
23714,298,538,369
23725,438,278,352
23735,292,649,351
23745,623,397,344
23755,323,454,349
24055,1,374
24065,59
24075,423,531,359
24086,450,575,348
24097,397,392,341
24546,,187,372
24556,4,358
24566,321,452,383
24576,466,677,357
24586,350,584,355
24596,695,525,306
24606,350,467,336
24616,719,301,349
24626,297,215,342
24636,717,625,345
24646,359,641,324
24656,399,81,357
24666,494,613,369
24676,615,560,357
24686,394,556,363
24696,336,623,338
24706,430,382,355
24716,342,130,340
24726,324,610,352
24736,367,327,327
24746,283,599,332
24756,505,634,320
24766,383,622,338
24776,628,453,342
24786,300,625,331
24796,261,560,344
24806,461,541,371
24816,312,599,377
24826,565,609,380
24836,328,494,411
24846,372,492,417
24856,420,481,445
24866,379,256,427
24876,320,222,423
24887,450,419,340
24897,484,605,373
24907,461,517,349
24917,423,654,312
24927,373,541,305
24937,343,484,289
24947,304,517,298
24957,315,302,348
24967,460,190,347
24977,286,435,339
24987,318,422,344
24997,579,293,330
25007,343,312,348
25017,377,278,363
25027,532,623,382
25037,325,596,371
25047,631,146,352
25057,450,404,369
25067,450,422,369
25077,437,397,374
25087,555,590,366
25101,475,578,368
25116,607,619,364
25132,285,594,363
25148,436,526,389
25164,493,635,370
25180,501,339,364
25196,381,502,352
25211,416,416,346
25227,328,627,356
25243,336,652,329
25259,354,538,385
25275,273,544,366
25290,482,571,356
25306,281,594,386
25322,345,301,364
25337,686,81,376
25354,275,611,399
25370,316,280,381
25385,398,223,415
25401,482,436,427
25417,507,376,405
25433,468,571,322
25449,504,563,356
25464,499,364,349
25480,502,366,328
25496,353,541,327
25512,395,389,330
25528,377,291,353
25544,374,672,380
25559,478,303,357
25575,305,647,364
25591,287,402,392
25607,330,608,355
25623,316,431,336
25638,478,429,356
25654,286,215,349
25670,307,332,343
25686,433,470,333
25702,479,629,376
25718,289,334,367
25733,626,578,355
25749,567,544,357
25765,276,247,370
25781,648,551,363
25797,566,604,348
25812,354,281,358
25828,784,627,353
25844,296,622,344
25860,249,642,320
25876,683,538,362
25892,288,324,363
25907,393,427,352
25923,250,568,390
25939,537,560,374
25955,427,601,340
25971,608,266,353
25986,338,597,364
26002,481,607,353
26018,687,256,365
26034,374,269,340
26050,378,364,371
26066,493,380,383
26081,493,586,380
26097,489,543,386
26113,511,391,359
26129,491,651,355
26145,356,627,321
26160,316,440,335
26176,334,401,304
26192,391,338,361
26208,330,266,364
26224,337,479,322
26240,336,154,377
26255,344,340,397
26271,405,390,375
26287,592,467,414
26303,396,266,411
26319,652,658,383
26334,286,426,377
26350,236,278,381
26366,402,234,375
26382,443,254,364
26398,514,596,334
26414,502,551,303
26429,511,520,322
26445,484,535,296
26461,509,568,327
26477,512,280,341
26492,513,94,349
26508,372,646,376
26524,264,630,392
26540,371,277,340
26556,438,344,375
26572,363,566,454
26588,284,538,379
26603,334,294,373
26619,413,559,365
26635,671,554,373
26651,268,524,385
26667,383,571,375
26682,485,191,368
26698,459,503,395
26714,636,486,401
26730,462,513,393
26746,503,569,404
26762,519,541,404
26777,502,351,412
26793,497,559,426
26809,450,481,414
26825,407,435,404
26841,352,400,400
26856,362,360,391
26872,705,533,389
26888,311,620,365
26904,355,621,344
26920,461,280,336
26936,329,545,403
26951,325,618,385
26967,416,609,413
26983,492,646,389
26999,588,662,384
27015,329,567,378
27030,316,608,399
27046,446,366,379
27062,467,281,376
27078,487,410,359
27094,416,238,366
27109,500,605,400
27125,510,462,371
27141,473,354,389
27157,443,630,399
27173,430,648,408
27189,347,375,406
27204,681,644,374
27220,618,466,424
27236,447,598,427
27252,353,553,378
27268,453,551,384
27283,389,532,380
27299,440,570,397
27315,285,587,416
27331,367,456,416
27347,302,593,416
27363,352,634,426
27378,494,292,426
27394,519,437,468
27410,477,577,456
27426,495,311,457
27442,506,414,533
27457,509,392,493
27473,510,547,457
27489,465,344,470
27505,417,230,480
27521,380,529,471
27537,412,281,457
27552,325,372,387
27568,288,640,395
27584,263,524,402
27600,451,483,439
27616,423,499,441
27631,646,622,446
27647,336,303,442
27663,386,567,432
27679,420,387,467
27695,432,324,469
27711,471,552,438
27726,496,249,444
27742,507,601,447
27758,514,293,404
27774,513,618,441
27790,435,515,468
27805,418,652,463
27821,391,351,463
27837,328,341,471
27853,484,645,482
27869,503,617,507
27885,354,570,496
27900,446,547,476
27916,442,357,457
27932,358,543,466
27948,282,566,481
27964,314,541,495
27979,293,628,501
27995,307,277,496
28011,481,230,504
28027,414,614,509
28043,445,581,508
28058,492,462,518
28074,507,549,470
28090,414,357,475
28106,401,354,491
28122,434,280,496
28138,520,587,500
28153,343,203,482
28169,285,568,464
28185,311,590,472
28201,713,638,476
28217,654,489,471
28233,547,525,477
28248,312,272,463
28264,308,600,480
28280,502,335,482
28296,655,535,488
28312,422,386,486
28327,492,309,521
28343,410,647,505
28359,494,635,515
28375,513,282,516
28391,512,296,513
28406,461,453,509
28422,486,494,501
28438,404,593,498
28454,485,408,520
28470,456,633,513
28486,367,513,491
28501,374,580,478
28517,306,589,484
28533,292,287,481
28549,479,580,493
28565,244,574,486
28580,298,553,498
28596,278,529,504
28612,253,270,510
28628,591,553,508
28644,249,572,506
28660,374,574,502
28675,474,414,501
28691,498,347,514
28707,345,346,517
28723,477,422,512
28739,485,382,512
28754,434,610,513
28770,432,519,513
28786,487,348,507
28802,394,604,501
28818,429,613,506
28834,354,558,511
28849,284,567,507
28865,323,463,503
28881,302,555,477
28897,341,247,472
28913,370,368,477
28928,411,647,483
28944,620,457,483
28960,452,649,500
28976,440,582,505
28992,358,588,513
29008,399,576,518
29023,496,236,506
29039,476,609,490
29055,451,194,508
29071,582,375,514
29087,397,615,513
29102,496,237,512
29118,561,656,512
29134,414,650,512
29150,316,647,498
29166,347,621,505
29182,322,251,518
29197,695,347,486
29213,654,608,450
29229,526,311,451
29245,246,506,452
29261,367,574,465
29276,285,575,482
29292,485,413,492
29308,501,562,501
29324,511,591,507
29340,511,484,523
29356,513,312,514
29371,508,351,513
29387,468,632,512
29403,389,592,513
29419,391,350,512
29435,340,483,497
29450,378,382,491
29466,288,315,503
29482,334,311,509
29498,283,644,510
29514,330,639,517
29529,374,424,507
29545,435,630,504
29561,487,217,505
29577,403,186,508
29593,296,664,513
29609,353,216,514
29624,283,408,508
29640,298,427,500
29656,453,358,519
29672,524,638,513
29688,508,320,512
29702,398,96,513
29719,486,592,513
29735,517,422,512
29751,511,420,510
29767,470,300,512
29783,584,305,515
29798,371,698,514
29814,324,199,513
29830,554,517,513
29846,346,425,512
29862,319,574,512
29877,463,568,506
29893,247,549,503
29909,460,575,508
29925,283,233,503
29941,364,582,507
29957,592,234,511
29972,307,590,512
29988,367,368,513
30004,438,262,516
30020,501,623,512
30036,354,630,513
30051,317,635,512
30067,404,614,513
30083,378,630,513
30099,326,325,512
30115,367,520,512
30131,345,637,512
30146,340,458,512
30162,338,646,512
30178,743,321,513
30194,332,668,512
30210,402,481,513
30225,358,616,502
30241,367,594,501
30257,425,638,443
30273,659,370,433
30289,747,332,478
30305,367,466,497
30320,739,658,494
30336,349,625,493
30352,462,260,493
30368,583,282,495
30384,549,565,520
30399,380,607,481
30415,329,570,493
30431,631,161,508
30447,737,636,517
30463,373,654,497
30479,443,650,509
30494,293,235,501
30510,745,568,507
30526,324,280,517
30542,334,618,504
30558,414,275,520
30573,510,320,514
30589,529,520,512
30605,334,646,512
30621,406,311,512
30637,275,600,513
30653,572,172,512
30668,393,572,508
30684,291,569,505
30700,436,269,505
30716,313,642,510
30732,512,613,511
30747,418,490,512
30763,497,446,513
30779,510,568,517
30795,503,442,513
30811,510,559,504
30827,460,615,493
30842,418,537,508
30858,428,400,518
30874,457,505,505
30890,548,447,507
30906,440,316,517
30921,377,644,505
30937,324,529,514
30953,347,540,514
30969,373,581,513
30985,305,406,512
31001,307,507,512
31016,749,263,512
31032,614,206,510
31048,624,619,496
31064,305,653,508
31080,327,468,509
31095,291,367,505
31111,345,246,522
31127,445,344,516
31143,490,591,479
31159,554,565,483
31175,452,541,530
31190,662,409,492
31206,463,447,501
31222,459,389,498
31238,461,598,494
31254,500,273,488
31269,476,499,482
31285,416,395,481
31301,474,378,485
31317,498,453,496
31333,420,369,506
31349,483,413,510
31364,485,258,511
31380,427,636,512
31396,706,616,506
31412,354,587,503
31428,430,253,502
31443,501,369,495
31459,495,258,498
31475,511,533,505
31491,513,571,505
31507,515,538,497
31522,481,521,491
31538,446,488,510
31554,439,652,516
31570,497,660,489
31586,518,132,487
31602,493,674,522
31617,425,293,511
31633,365,653,490
31649,366,670,491
31665,409,523,494
31681,448,508,496
31696,488,483,518
31712,458,680,515
31728,329,648,513
31744,317,533,512
31760,354,469,512
31776,382,475,513
31791,292,246,515
31807,551,649,513
31823,437,381,513
31839,440,242,512
31855,363,508,513
31870,500,678,516
31886,477,309,507
31902,469,672,504
31918,336,583,498
31934,376,315,485
31950,374,610,504
31965,496,373,489
31981,393,595,495
31997,355,582,499
32013,399,482,504
32029,397,238,503
32044,455,252,510
32060,430,685,509
32076,322,272,506
32092,503,359,507
32108,391,390,499
32124,489,303,491
32139,386,592,495
32155,434,615,495
32171,375,312,494
32187,469,238,491
32203,472,388,489
32219,505,512,476
32234,388,465,499
32250,447,372,511
32266,501,674,515
32282,512,432,509
32298,511,392,516
32313,516,552,513
32329,479,429,506
32345,505,634,506
32361,482,398,507
32377,495,589,517
32393,501,218,514
32408,512,660,506
32424,513,623,502
32440,509,520,500
32456,514,578,509
32472,513,523,513
32487,498,264,513
32503,454,542,513
32519,471,645,500
32535,341,626,511
32551,313,658,510
32567,498,593,505
32582,580,243,505
32598,329,469,510
32614,314,216,516
32630,601,657,516
32646,429,602,512
32661,304,448,502
32677,305,267,508
32693,352,544,491
32709,451,187,488
32725,503,611,479
32741,508,360,496
32756,518,630,508
32772,511,659,512
32788,508,656,508
32804,506,230,506
32820,510,532,509
32835,487,319,506
32851,507,288,505
32867,511,659,503
32883,514,672,503
32899,491,292,504
32915,377,603,503
32930,724,663,504
32946,414,168,505
32962,712,466,511
32978,578,533,516
32994,406,549,500
33010,320,683,505
33025,372,388,509
33041,401,285,516
33057,361,397,512
33073,459,484,517
33089,448,441,479
33104,492,661,492
33120,458,643,503
33136,508,372,495
33152,489,354,501
33168,508,569,509
36219,
37084,98,393,488
37094,232,489
37104,442,341,490
37114,353,533,489
37124,348,537,490
37134,361,376,489
37144,283,570,489
37154,500,346,489
37164,347,351,489
37174,314,344,490
37184,318,586,491
37194,547,322,489
37204,464,589,490
37214,446,175,489
37224,280,207,487
37235,545,436,490
37246,627,654,487
37256,369,604,488
37266,562,661,489
37276,300,240,491
37290,513,415,492
37300,304,624,492
37311,300,679,489
37321,422,658,491
37331,328,506,491
37341,424,657,490
37351,502,620,491
37361,733,564,489
37371,372,487,491
37381,427,244,489
37391,672,288,490
37401,359,663,490
37411,272,665,491
37421,272,451,489
37431,705,630,489
37441,635,332,489
37451,353,421,490
37461,334,649,489
37471,355,369,490
37481,697,150,487
37491,391,268,487
37501,361,677,487
37511,420,655,485
37521,428,632,486
37531,402,260,487
37541,605,642,490
37551,524,650,488
37561,413,299,489
37571,364,438,491
37581,470,584,488
37591,617,397,490
37601,665,432,489
37611,365,202,490
37621,345,309,490
37631,481,668,488
37644,342,290,489
37660,612,374,489
37676,401,395,489
37691,353,439,488
37707,314,246,491
37723,432,544,488
37739,374,666,490
37755,324,580,490
37771,303,667,491
37786,387,457,492
37802,380,643,489
37818,290,629,493
37834,562,609,488
37850,300,343,487
37865,284,651,485
37881,420,297,482
37897,623,359,483
37913,703,437,489
37929,362,281,497
37945,492,185,501
37960,509,297,496
37976,513,373,490
37992,508,444,489
38008,514,321,489
38024,510,364,487
38039,506,621,490
38055,506,511,493
38071,512,644,496
38087,513,299,496
38103,510,563,498
38119,510,473,496
38134,503,287,497
38150,508,453,495
38166,511,644,495
38182,512,652,492
38198,512,362,490
38213,485,356,492
38229,466,261,491
38245,411,492,491
38261,433,565,493
38277,379,335,493
38292,355,667,494
38308,379,422,487
38324,391,629,486
38340,652,628,486
38356,506,393,486
38372,466,333,487
38387,288,631,483
38403,299,418,482
38419,491,241,486
38435,413,446,485
38451,703,323,484
38466,389,376,477
38482,290,587,477
38498,563,586,481
38514,515,635,485
38530,489,157,491
38546,538,188,486
38561,309,641,483
38577,359,327,485
38593,393,299,489
38609,290,472,491
38625,312,523,491
38640,326,636,488
38656,495,330,483
38672,610,641,478
38688,382,372,477
38704,326,625,477
38720,301,554,478
38735,305,640,484
38751,300,699,482
38767,274,662,482
38783,288,208,483
38799,311,143,487
38814,288,696,484
38830,289,415,484
38846,288,448,484
38862,307,336,485
38878,347,267,489
38894,343,343,495
38909,360,596,497
38925,588,318,492
38941,725,658,491
38957,613,141,489
38973,374,641,487
38988,455,530,485
39004,360,630,482
39020,613,671,484
39036,686,642,487
39052,306,250,487
39068,328,651,491
39083,338,660,486
39099,511,661,489
39115,354,421,490
39131,696,327,492
39147,313,671,488
39162,502,689,490
39178,420,228,487
39194,495,582,488
39210,301,662,491
39226,308,659,486
39241,379,427,485
39257,579,592,487
39273,586,662,484
39289,467,475,486
39305,426,667,484
39321,321,405,483
39336,408,276,487
39352,314,410,487
39368,324,652,486
39384,660,665,485
39400,507,214,483
39415,298,128,483
39431,339,617,484
39447,322,507,484
39463,316,413,483
39479,341,658,479
39495,372,342,481
39510,423,320,480
39526,339,345,480
39542,300,256,481
39558,369,630,480
39574,314,168,483
39589,547,677,480
39605,306,525,480
39621,334,631,481
39637,397,384,481
39653,308,651,479
39669,701,633,479
39684,391,172,481
39700,344,664,478
39716,332,675,478
39732,299,338,479
39748,551,593,475
39764,310,590,481
39779,300,599,480
39795,306,414,480
39811,317,573,479
39827,513,605,479
39843,308,220,479
39858,325,639,482
39874,392,356,479
39890,344,244,482
39906,336,363,481
39922,298,440,479
39937,467,317,482
39953,396,582,479
39969,464,290,485
39985,275,659,484
40001,691,485,481
40017,291,662,482
40032,307,457,481
40048,394,432,479
40064,331,301,478
40080,497,255,481
40096,313,256,481
40111,376,342,480
40127,565,410,482
40143,364,541,482
40159,562,193,483
40175,355,234,487
40191,312,249,483
40206,603,651,483
40222,340,400,480
40238,561,641,485
40254,507,207,482
40270,319,323,483
40285,463,417,482
40301,341,286,480
40317,484,620,481
40333,346,279,478
40349,508,462,482
40365,564,205,481
40380,502,488,479
40396,356,226,482
40412,283,244,487
40428,693,445,483
40444,311,268,481
40459,511,248,481
40475,313,652,480
40491,312,554,479
40507,602,629,478
40523,410,352,479
40539,474,502,483
40554,452,306,481
40570,331,646,480
40586,706,427,478
40602,558,294,481
40618,326,389,477
40633,351,491,476
40649,515,241,477
40665,273,313,477
40681,321,625,475
40697,319,500,475
40713,718,654,478
40728,323,464,475
40744,319,649,478
40760,493,684,473
40776,478,619,473
40792,335,631,476
40807,349,323,475
40823,393,174,473
40839,334,318,477
40855,482,567,475
40871,520,358,474
40887,357,243,477
40902,320,579,477
40918,413,215,477
40934,283,405,476
40950,311,157,476
40966,681,268,476
40982,295,509,479
40997,301,210,474
41013,432,674,474
41029,599,197,477
41045,312,498,474
41061,432,257,473
41076,342,168,472
41092,665,629,473
41108,459,664,476
41124,379,618,475
41140,478,207,474
41156,300,193,474
41171,599,481,475
41187,458,309,473
41203,292,261,477
41219,502,432,477
41235,453,180,475
41250,306,661,477
41266,508,215,473
41282,303,240,474
41298,497,516,475
41314,341,178,475
41330,309,578,477
41345,682,204,475
41361,301,550,476
41377,295,572,478
41393,620,623,476
41409,311,359,475
41424,525,642,475
41440,349,281,477
41456,374,652,474
41472,614,652,477
41488,588,561,473
41504,290,641,477
41519,339,610,473
41535,279,571,473
41551,378,641,475
41567,636,459,473
41583,285,297,474
41598,387,199,474
41614,326,627,475
41630,318,515,475
41646,493,662,474
41662,702,462,477
41678,516,373,477
41693,303,456,474
41709,377,644,472
41725,331,202,469
41741,313,341,468
41757,331,264,471
41772,742,621,476
41788,305,616,479
41804,415,646,478
41820,499,575,480
41836,511,641,476
41852,459,634,474
41867,392,534,475
41883,498,152,475
41899,511,627,477
41915,506,243,477
41931,487,655,477
41947,490,370,478
41962,509,221,475
41978,512,361,475
41994,512,166,478
42010,511,642,480
42026,512,629,482
42041,514,385,483
42057,512,548,484
42073,511,272,481
42089,502,301,482
42105,359,613,486
42121,333,397,483
42136,668,469,480
42152,395,410,481
42168,392,299,479
42184,343,522,477
42200,426,347,477
42215,434,572,478
42231,424,601,476
42247,437,582,479
42263,370,459,479
42279,407,462,479
42295,338,670,479
42310,614,370,482
42326,335,471,480
42342,511,628,483
42358,347,643,480
42374,446,601,481
42389,451,258,479
42405,396,241,482
42421,463,667,478
42437,314,473,479
42453,311,316,476
42469,733,283,476
42484,659,430,478
42500,381,638,482
42516,471,325,477
42532,386,634,479
42548,310,622,477
42563,299,172,480
42579,737,392,480
42595,582,652,479
42611,611,637,471
42627,509,634,472
42643,460,262,471
42658,345,489,469
42674,364,200,474
42690,630,466,474
42706,382,428,475
42722,367,632,477
42737,331,624,479
42753,329,617,473
42769,317,375,472
42785,664,424,472
42801,346,558,470
42816,662,284,470
42832,609,275,473
42848,521,645,472
42864,358,647,471
42880,403,212,469
42896,289,645,470
42911,362,641,475
42927,307,626,466
42943,309,192,471
42959,372,252,473
42975,307,535,473
42990,616,214,472
43006,540,316,469
43022,550,393,473
43038,548,449,472
43054,389,659,467
43070,416,470,469
43085,389,457,470
43101,513,184,477
43117,489,424,474
43133,449,641,471
43149,572,251,472
43165,365,629,473
43180,475,583,469
43196,297,658,473
43212,343,481,470
43228,407,453,469
43244,327,237,468
43259,644,429,472
43275,608,635,469
43291,518,505,471
43307,655,668,469
43323,508,588,469
43339,691,635,468
43354,676,541,465
43370,587,426,463
43386,331,195,466
43402,367,358,463
43418,616,483,461
43433,321,333,462
43449,299,387,457
43465,308,202,462
43481,432,499,462
43497,675,473,463
43513,491,653,462
43528,491,620,457
43544,473,282,461
43560,567,324,460
43576,594,650,463
43592,491,631,466
43607,356,563,464
43623,367,314,464
43639,660,340,466
43655,490,386,469
43671,332,373,467
43687,695,644,468
43702,329,569,473
43718,343,616,474
43734,435,414,473
43750,412,276,474
43766,499,219,476
43781,508,457,474
43797,511,279,471
43813,513,398,469
43829,517,377,472
43845,518,627,483
43860,511,263,478
43876,517,582,479
43892,510,324,476
43908,511,503,482
43924,502,580,491
43940,516,572,486
43955,514,544,488
43971,506,579,488
43987,485,341,486
44003,506,296,485
44019,511,520,480
44034,496,357,483
44050,509,441,479
44066,509,579,484
44082,510,350,480
44098,508,481,480
44114,510,453,475
44129,511,442,476
44145,511,625,476
44161,478,611,481
44177,439,204,483
44193,464,574,481
44208,500,490,483
44224,511,587,485
44240,484,617,477
44256,469,594,478
44272,507,655,476
44288,511,601,477
44303,506,581,477
44319,393,342,474
44335,372,436,481
44351,576,594,478
44367,325,218,474
44383,304,469,476
44398,322,618,477
44414,339,388,473
44430,347,583,477
44446,309,605,482
44462,463,561,477
44477,349,451,474
44493,332,588,478
44509,323,529,475
44525,323,166,471
44541,406,475,470
44557,651,423,475
44572,332,412,471
44588,341,333,477
44604,340,576,473
44620,318,202,469
44636,347,601,472
44651,425,606,468
44667,351,423,471
44683,341,514,469
44699,336,622,465
44715,365,616,466
44731,539,507,460
44746,336,454,463
44762,319,260,458
44778,330,259,452
44794,342,505,455
44810,354,352,455
44825,348,474,450
44841,615,624,454
44857,323,430,452
44873,334,619,446
44889,350,636,448
44905,455,636,450
44920,304,285,441
44936,295,530,446
44952,392,636,442
44968,428,256,449
44984,360,460,448
44999,782,441,442
45015,348,624,444
45031,325,531,441
45047,321,539,435
45063,329,615,436
45079,395,288,439
45094,336,613,444
45110,605,450,439
45126,444,489,446
45142,340,546,451
45158,423,616,444
45173,330,620,453
45189,416,366,440
45205,361,250,440
45221,340,633,437
45237,330,556,435
45253,348,420,449
45268,314,225,437
45284,519,634,428
45300,485,230,434
45316,305,619,445
45332,627,572,441
45347,332,602,439
45363,557,238,439
45379,415,268,433
45395,403,474,443
45411,509,633,436
45427,574,595,442
45442,343,636,433
45458,331,626,433
45474,726,640,436
45490,344,608,428
45506,457,612,434
45521,367,283,441
45537,345,354,434
45553,562,359,435
45569,382,281,435
45585,321,262,443
45601,316,291,446
45616,365,493,439
45632,320,493,428
45648,413,455,437
45664,375,451,428
45680,312,622,439
45695,329,389,433
45711,466,624,429
