203966,
203976,5,367,400
203986,237,545,413
203996,254,27,402
204006,464,422,410
204016,580,248,405
204026,454,357,416
204039,422,502,398
204049,512,314,407
204059,381,541,405
204069,225,515,403
204079,389,552,418
204089,456,546,412
204099,401,545,402
204109,630,538,410
204119,141,569,421
204129,403,407,398
204139,276,336,393
204149,384,581,403
204159,525,339,420
204169,491,455,401
204179,318,175,413
204189,221,561,414
204199,626,537,425
204209,207,571,408
204219,449,549,404
204229,285,605,415
204239,364,534,383
204249,301,555,393
204259,250,543,409
204269,364,540,404
204279,425,547,402
204289,273,534,402
204299,520,556,398
204309,569,163,398
204319,244,568,393
204329,667,434,397
204339,565,557,411
204349,648,337,406
204359,346,150,408
204369,272,387,409
204379,274,568,416
204389,338,474,409
204399,563,555,420
204409,317,539,405
204419,362,507,405
204429,643,315,405
204439,266,547,392
204449,890,580,390
204459,274,197,427
204469,290,368,405
204479,371,542,385
204489,521,562,395
204499,442,540,413
204509,404,552,432
204524,386,525,415
204539,190,554,425
204555,269,551,403
204571,268,558,410
204587,673,550,429
204603,773,543,431
204619,524,562,446
204634,223,526,441
204650,756,542,418
204666,311,368,418
204682,406,606,400
204698,339,557,398
204713,377,372,424
204729,356,422,414
204745,385,586,409
204761,429,588,410
204777,479,462,439
204793,356,243,414
204808,313,561,404
204824,323,545,411
204840,370,253,417
204856,334,527,410
204872,327,575,418
204887,268,522,425
204903,287,559,434
204919,383,557,412
204935,702,563,411
204951,702,571,397
204967,668,480,397
204982,472,564,403
204998,241,546,409
205014,298,493,421
205030,389,527,405
205046,342,555,392
205061,672,590,382
205077,354,576,400
205093,513,556,414
205109,365,543,422
205125,766,433,402
205141,836,409,413
205156,240,580,413
205172,818,551,420
205188,472,535,418
205204,468,554,420
205220,270,537,432
205235,467,580,426
205251,417,477,419
205267,348,263,409
205283,706,560,402
205299,317,572,413
205315,198,328,401
205330,438,559,417
205346,267,582,434
205362,675,587,408
205378,226,569,408
205394,264,553,410
205409,509,548,423
205425,266,542,434
205441,295,547,409
205457,253,548,414
205473,323,563,391
205489,540,579,412
205504,549,546,431
205520,326,551,436
205536,212,557,409
205552,547,395,412
205568,458,569,416
205583,244,390,421
205599,384,537,418
205615,263,531,427
205631,192,558,408
205647,458,236,409
205663,234,571,410
205678,494,401,405
205694,181,581,410
205710,453,509,405
205726,179,537,402
205742,408,527,431
205757,598,541,415
205773,534,556,397
205789,697,569,407
205805,330,549,404
205821,275,631,423
205837,179,288,418
205852,276,578,423
205868,462,595,415
205884,340,591,399
205900,452,525,429
205916,509,551,426
205931,535,531,409
205947,578,527,414
205963,270,181,422
205979,281,554,427
205995,221,576,422
206011,595,527,436
206026,150,544,442
206042,232,544,420
206058,232,566,426
206074,324,542,422
206090,561,538,402
206105,457,442,425
206121,365,545,410
206137,376,276,422
206153,716,559,436
206169,557,476,405
206184,194,524,403
206200,234,550,432
206216,206,554,415
206232,179,364,417
206248,245,566,411
206264,233,573,403
206279,250,563,424
206295,260,556,424
206311,263,566,407
206327,278,608,414
206343,530,421,439
206358,258,195,433
206374,505,460,424
206390,247,464,404
206406,345,246,396
206422,190,402,394
206438,671,585,417
206453,339,559,409
206469,180,544,441
206485,375,278,426
206501,662,561,401
206517,152,559,417
206532,398,298,418
206548,735,501,419
206564,449,481,431
206580,293,326,437
206596,391,562,413
206612,438,552,415
206627,342,537,419
206643,266,563,418
206659,305,551,419
206675,488,370,426
206691,253,433,443
206706,397,564,412
206722,667,578,405
206738,703,572,421
206754,161,548,432
206770,342,566,423
206786,651,552,443
206801,495,474,447
206817,702,550,437
206833,396,578,437
206849,181,570,436
206865,295,381,431
206880,375,556,426
206896,388,547,427
206912,306,120,449
206928,273,566,421
206944,295,552,420
206960,386,593,417
206975,320,292,419
206991,347,539,430
207007,280,576,430
207023,337,568,416
207039,596,202,423
207054,349,558,417
207070,281,564,427
207086,729,555,424
207102,319,564,422
207118,470,150,427
207133,196,548,428
207149,268,333,421
207165,501,558,432
207181,304,377,427
207197,360,556,446
207213,320,547,441
207228,692,556,425
207244,431,270,417
207260,531,595,432
207276,398,596,417
207292,365,556,415
207307,736,371,426
207323,256,356,432
207339,345,311,442
207355,342,564,448
207371,389,566,453
207387,352,593,445
207402,548,401,441
207418,303,563,436
207434,154,573,432
207450,397,523,433
207466,437,614,436
207482,475,233,440
207497,276,535,441
207513,222,333,449
207529,592,543,443
207545,206,501,445
207561,680,586,443
207576,569,545,462
207592,322,507,455
207608,653,572,448
207624,314,586,438
207640,654,290,440
207656,263,576,449
207671,335,454,436
207687,345,455,429
207703,449,343,455
207719,504,589,451
207735,375,579,443
207750,327,547,442
207766,531,566,450
207782,498,530,445
207798,649,573,441
207814,557,561,442
207830,769,577,454
207845,301,288,452
207861,603,578,451
207877,216,558,445
207893,259,551,443
207909,744,536,448
207924,331,497,444
207940,309,550,455
207956,435,537,448
207972,250,538,436
207988,237,317,426
208003,444,582,447
208019,471,555,452
208035,275,580,441
208051,713,562,453
208067,520,556,459
208083,637,309,449
208098,248,480,451
208114,215,545,457
208130,380,565,451
208146,246,574,455
208162,273,580,450
208177,525,572,450
208193,237,547,448
208209,592,588,459
208225,551,550,460
208241,331,576,463
208257,620,240,465
208272,546,268,465
208288,222,555,467
208304,392,461,458
208320,224,578,457
208336,522,403,456
208352,176,559,463
208367,217,538,459
208383,237,550,471
208399,242,398,463
208415,225,559,453
208431,276,551,456
208446,474,562,458
208462,197,592,461
208478,294,566,470
208494,296,574,476
208510,328,540,475
208526,297,560,468
208541,350,542,463
208557,473,569,464
208573,476,564,467
208589,385,538,458
208605,252,577,465
208620,227,553,466
208636,200,382,462
208652,266,540,471
208668,261,275,462
208684,271,559,466
208700,227,555,461
208715,351,526,471
208731,206,314,471
208747,202,409,461
208763,389,305,446
208779,268,215,449
208794,300,618,463
208810,233,573,459
208826,291,562,471
208842,320,574,469
208858,251,579,468
208874,300,588,474
208889,260,571,475
208905,221,572,478
208921,234,495,475
208937,622,596,470
208953,201,564,467
208968,208,591,467
208984,249,300,466
209000,239,573,477
209016,494,577,469
209032,278,580,473
209048,257,543,471
209063,341,554,476
209079,584,593,472
209095,230,396,471
209111,216,550,472
209127,265,551,479
209142,233,548,469
209158,209,559,461
209174,257,444,478
209190,268,547,474
209206,336,440,466
209222,449,550,466
209237,471,417,468
209253,493,584,465
209269,496,262,468
209285,382,441,479
209301,483,434,479
209316,475,550,467
209332,394,556,459
209348,408,560,468
209364,487,564,472
209380,410,539,463
209396,254,540,469
209411,211,556,472
209427,367,558,467
209443,270,547,465
209459,261,555,466
209475,261,545,460
209490,239,558,468
209506,475,571,488
209522,225,539,483
209538,221,164,468
209554,354,609,445
209570,237,185,460
209585,239,548,478
209601,694,566,482
209617,273,575,479
209633,521,360,478
209649,215,545,473
209664,223,473,472
209680,226,579,481
209696,256,407,480
209712,257,593,481
209728,200,183,476
209743,277,580,476
209759,312,562,473
209775,256,540,474
209791,279,572,476
209807,330,543,474
209823,338,531,473
209838,241,483,479
209854,248,554,467
209870,223,581,476
209886,235,567,478
209902,247,199,474
209917,319,540,478
209933,314,563,483
209949,351,595,472
209965,322,567,479
209981,247,576,474
209997,250,566,482
210012,561,543,491
210028,335,546,488
210044,280,548,491
210060,606,554,489
210076,200,561,469
210091,217,548,477
210107,181,546,470
210123,370,302,483
210139,386,515,484
210153,284,6,479
210170,340,546,488
210186,278,546,479
210202,205,554,477
210218,254,539,480
210234,270,575,483
210250,676,579,482
210265,435,461,480
210281,273,311,478
210297,274,522,484
210313,233,494,485
210329,226,565,483
210344,195,606,485
210360,249,132,479
210376,297,628,472
210392,280,546,480
210408,248,578,490
210424,182,166,490
210439,297,547,490
210455,273,311,491
210471,782,431,491
210487,238,559,492
210503,228,577,488
210518,257,555,487
210534,267,495,484
210550,226,546,485
210566,267,549,478
210582,273,542,479
210598,290,540,482
210613,251,523,487
210629,186,569,487
210645,699,566,482
210661,342,434,485
210677,178,576,486
210692,250,545,487
210708,216,542,487
210724,305,545,490
210740,285,441,492
210756,235,558,491
210772,263,351,491
210787,270,562,492
210803,256,580,494
210819,445,322,492
210835,258,525,491
210851,299,589,491
210866,434,465,488
210882,257,160,485
210898,228,555,485
210914,370,513,483
210930,346,565,482
210946,376,549,485
210961,384,541,486
210977,306,565,485
210993,252,530,482
211009,321,561,484
211025,251,541,484
211040,245,562,480
211056,263,531,482
211072,246,569,482
211088,335,557,481
211104,293,228,485
211119,359,537,486
211135,278,568,486
211151,257,560,487
211167,266,177,489
211183,321,536,491
211199,311,547,488
211214,275,566,485
211230,324,542,478
211246,483,540,480
211262,269,542,487
211278,264,556,488
211293,196,562,490
211309,229,307,486
211325,229,369,487
211341,249,568,489
211357,225,601,490
211373,263,262,489
211388,209,567,492
211404,206,536,495
211420,188,555,493
211436,231,429,497
211452,336,539,494
211467,263,412,488
211483,236,576,486
211499,181,567,482
211515,368,565,482
211531,255,380,482
211547,354,563,486
211562,249,578,487
211578,263,405,488
211594,474,572,489
211610,525,570,488
211626,208,566,491
211641,208,586,494
211657,269,572,492
211673,587,592,488
211689,268,548,487
211705,250,577,489
211721,776,557,488
211736,266,547,487
211752,279,565,487
211768,224,539,489
211784,270,591,491
211800,251,548,491
211815,765,556,492
211831,713,575,493
211847,236,570,494
211863,437,537,500
211879,258,576,495
211895,198,558,494
211910,685,542,493
211926,257,450,494
211942,229,535,491
211958,259,538,487
211974,259,569,485
211989,462,538,487
212005,282,556,484
212021,257,549,486
212037,316,319,484
212053,409,414,486
212069,239,577,489
212084,260,561,492
212100,256,578,494
212116,465,569,488
212132,431,564,492
212148,240,306,491
212163,250,560,491
212179,205,268,492
212195,263,582,491
212211,382,588,487
212227,345,557,489
212243,438,535,490
212258,237,557,486
212274,335,262,491
212290,351,537,486
212306,600,373,484
212322,282,572,485
212337,297,440,482
212353,283,437,487
212369,446,308,486
212385,305,288,485
212401,713,567,486
212416,291,582,487
212432,406,556,486
212448,274,557,486
212464,251,553,488
212480,263,556,489
212496,255,339,488
212511,689,294,489
212527,212,572,487
212543,229,557,485
212559,237,175,492
212575,296,590,496
212590,303,589,495
212606,303,302,495
212622,512,564,496
212638,360,552,496
212654,477,552,495
212670,496,562,492
212685,492,438,491
212701,500,567,492
212717,439,552,492
212733,403,535,494
212749,358,590,491
212764,344,150,489
212780,333,576,491
212796,328,545,491
212812,408,551,489
212828,262,536,491
212844,258,537,489
212859,297,560,492
212875,330,546,492
212891,318,395,490
212907,304,556,490
212923,291,554,490
212939,292,373,489
212954,244,296,491
212970,374,554,490
212986,239,297,488
213002,241,538,489
213018,272,573,489
213033,305,474,488
213049,264,500,487
213065,249,567,490
285028,,422
285253,303,432
285263,270,590,425
285273,410,558,426
285286,359,568,425
285296,215,592,430
285306,305,593,417
285316,470,384,427
285326,411,593,428
285336,696,541,419
285346,448,384,424
285356,574,594,431
285366,435,528,433
285376,500,574,433
285386,396,557,426
285396,675,554,428
285406,398,564,426
285416,571,491,426
285426,623,529,426
285436,385,414,430
285446,559,573,416
285456,398,250,433
285466,724,375,427
285476,423,473,424
285486,297,569,431
285496,391,544,424
285506,374,568,433
285516,475,570,423
285526,495,336,429
285536,707,551,429
285546,228,390,430
285556,333,193,434
285566,247,517,429
285576,366,568,436
285586,239,559,420
285596,244,545,429
285606,227,530,428
285616,507,567,434
285626,318,568,427
285636,292,322,426
285646,344,386,418
285656,747,570,432
285666,204,495,422
285676,259,562,423
285686,780,352,432
285696,246,581,427
285706,331,549,422
285716,541,546,427
285726,681,484,426
285736,268,567,428
285746,581,266,427
285756,335,531,431
285766,377,598,429
285776,725,558,428
285786,525,556,430
285797,466,389,423
285813,238,555,427
285829,250,383,429
285845,250,556,432
285861,483,583,425
285876,237,528,433
285892,289,550,433
285908,757,537,438
285924,269,340,428
285940,743,147,433
285955,266,594,429
285971,243,320,424
285987,749,403,429
286003,341,546,426
286019,735,270,423
286035,218,246,431
286050,721,326,420
286066,431,578,419
286082,216,566,425
286098,447,407,429
286114,744,595,435
286129,258,581,430
286145,287,582,437
286161,293,564,430
286177,669,498,433
286193,687,587,430
286209,423,598,434
286224,508,561,433
286240,357,387,413
286256,652,574,411
286272,360,416,411
286288,308,566,432
286303,682,560,419
286319,676,593,428
286335,433,568,412
286351,613,570,418
286367,432,558,431
286383,637,557,425
286398,612,565,425
286414,597,156,419
286430,687,550,435
286446,274,605,435
286462,435,525,428
286477,456,569,437
286493,621,566,427
286509,641,335,423
286525,366,533,424
286541,239,563,419
286557,484,567,419
286572,347,544,427
286588,169,552,425
286604,682,561,416
286620,230,525,418
286636,265,572,416
286651,475,491,427
286667,665,555,424
286683,418,580,423
286699,485,555,426
286715,666,564,423
286731,678,539,422
286746,661,573,423
286762,443,591,431
286778,593,513,427
286794,671,584,423
286810,457,559,433
286825,544,567,423
286841,520,535,418
286857,684,373,418
286873,657,575,426
286889,298,572,413
286904,116,549,433
286920,496,347,428
286936,712,320,427
286952,332,575,422
286968,168,569,423
286984,688,557,425
286999,285,576,417
287014,401,48,407
287031,246,320,419
287047,674,597,399
287063,617,598,407
287078,440,561,400
287094,243,555,407
287110,655,572,422
287126,224,574,414
287142,659,384,411
287158,316,600,419
287173,307,578,417
287189,641,568,418
287205,374,576,428
287221,652,550,439
287237,368,575,430
287252,592,578,422
287268,532,596,423
287284,570,587,409
287300,399,589,417
287316,353,608,425
287331,565,556,429
287347,685,587,429
287363,372,546,433
287379,364,560,424
287395,479,401,419
287411,376,563,426
287426,292,208,411
287442,462,552,429
287458,418,576,412
287474,503,550,424
287490,430,551,423
287505,378,304,427
287521,626,297,421
287537,530,423,427
287553,251,312,421
287569,432,358,417
287585,248,573,413
287600,350,564,424
287616,645,540,417
287632,320,591,419
287648,674,586,409
287664,293,577,422
287679,354,559,423
287695,474,545,423
287711,707,561,419
287727,288,567,424
287743,435,261,425
287759,407,421,419
287774,293,568,417
287790,506,275,415
287806,686,378,419
287822,169,566,435
287838,690,568,420
287853,525,129,432
287869,663,425,548
287885,331,339,414
287901,400,584,415
287917,269,582,418
287933,678,570,423
287948,473,419,431
287964,288,575,428
287980,434,563,427
287996,449,438,419
288012,570,564,422
288027,352,559,419
288043,354,544,415
288059,620,571,403
288075,479,176,405
288091,529,223,433
288107,233,563,431
288122,465,607,418
288138,375,602,415
288154,501,140,418
288170,540,576,419
288186,231,578,411
288201,321,588,422
288217,683,560,422
288233,474,566,425
288249,288,594,426
288265,223,314,421
288281,214,598,420
288296,464,525,420
288312,274,575,408
288328,337,578,429
288344,599,557,438
288360,241,445,423
288375,343,179,420
288391,338,560,419
288407,308,574,427
288423,509,583,418
288439,330,577,421
288455,501,572,422
288470,742,565,421
288486,663,480,421
288502,470,579,416
288518,499,543,423
288534,249,459,409
288549,300,467,418
288565,458,558,413
288581,344,550,405
288597,554,475,421
288613,679,565,418
288629,284,224,433
288644,516,459,438
288660,240,556,421
288676,335,500,427
288692,419,588,428
288708,599,566,451
288723,708,551,392
288739,262,302,404
288755,721,580,396
288771,306,567,415
288787,614,577,429
288803,182,287,415
288818,682,581,417
288834,361,581,423
288850,663,420,413
288866,489,591,422
288882,464,422,435
288897,197,590,409
288913,409,442,418
288929,669,558,418
288945,457,575,427
288961,681,612,420
288977,488,613,418
288992,382,588,418
289008,408,546,424
289024,336,470,424
289040,217,552,411
289056,244,563,418
289071,262,299,425
289087,372,571,417
289103,434,410,425
289119,568,609,428
289135,258,499,433
289151,474,583,428
289166,316,589,421
289182,447,593,419
289198,726,613,432
289214,540,586,419
289230,298,488,406
289245,343,553,403
289261,534,603,421
289277,280,397,425
289293,328,480,420
289309,412,576,431
289325,318,284,424
289340,249,455,442
289356,375,596,430
289372,666,193,417
289388,421,573,416
289404,177,473,420
289419,721,407,413
289435,311,215,431
289451,393,437,424
289467,702,538,417
289483,195,592,425
289499,442,510,418
289514,777,569,430
289530,280,567,423
289546,264,536,419
289562,236,459,421
289578,250,598,417
289592,425,71,413
289609,280,564,425
289625,265,592,407
289641,235,531,402
289657,239,436,434
289673,263,610,415
289688,261,469,413
289704,236,571,426
289720,298,349,417
289736,610,586,432
289752,322,569,432
289767,795,559,426
289783,459,324,415
289799,244,578,423
289815,184,549,424
289831,279,475,412
289847,327,589,417
289862,270,584,425
289878,295,543,445
289894,206,187,427
289910,256,577,435
289926,267,578,423
289941,375,596,430
289957,550,566,441
289973,581,562,434
289989,315,399,421
290005,275,275,421
290021,227,563,429
290036,440,321,418
290052,271,535,423
290068,397,568,414
290084,493,531,425
290100,274,575,419
290115,579,585,412
290131,609,548,413
290147,475,322,405
290163,290,334,424
290179,559,524,431
290195,336,586,419
290210,269,339,426
290226,279,604,417
290242,688,567,417
290258,341,565,417
290274,487,542,422
290289,488,530,425
290305,305,580,420
290321,501,201,422
290337,575,533,427
290353,396,577,431
290369,504,462,425
290384,679,580,414
290400,342,536,424
290416,343,316,424
290432,336,565,419
290448,746,550,428
290463,628,542,427
290479,707,547,425
290495,693,562,412
290511,409,579,439
290527,385,588,422
290543,697,577,417
290558,360,574,413
290574,632,331,428
290590,544,576,424
290606,584,566,426
290622,254,558,421
290637,221,576,423
290653,397,554,408
290669,563,254,418
290685,286,422,415
290701,459,563,430
290717,332,423,417
290732,249,591,431
290748,479,394,440
290764,217,577,434
290780,346,602,433
290796,403,223,435
290811,461,584,427
290827,506,576,431
290843,514,463,436
290859,318,599,426
290875,324,592,428
290891,251,554,428
290906,454,575,428
290922,265,419,425
290938,247,372,429
290954,498,574,439
290970,313,542,433
290985,345,588,438
291001,325,556,431
291017,248,570,430
291033,607,544,426
291049,525,497,426
291065,467,362,416
291080,548,578,421
291096,235,246,422
291112,724,581,426
291128,601,562,412
291144,675,580,420
291159,308,558,423
291175,234,443,431
291191,467,570,419
291207,258,552,476
291223,331,608,428
291238,662,561,439
291254,310,456,457
291270,479,369,441
291286,519,576,433
291302,526,485,413
291318,495,568,409
291333,502,519,426
291349,419,576,411
291365,401,584,418
291381,562,605,426
291397,410,470,432
291412,429,589,427
291428,309,587,423
291444,481,569,421
291460,742,435,438
291476,250,495,427
291492,320,585,402
291507,779,581,416
291523,611,585,428
291539,295,592,423
291555,328,545,418
291571,370,576,431
291586,432,477,437
291602,489,558,418
291618,328,564,425
291634,346,472,425
291650,722,317,400
291666,263,344,402
291681,689,360,478
291697,588,591,494
291713,206,392,467
291729,237,485,443
291745,275,581,443
291760,303,312,441
291776,663,597,434
291792,420,434,430
291808,233,623,456
291824,370,583,415
291840,516,581,436
291855,348,279,450
291871,492,640,426
291887,432,569,425
291903,596,410,421
291919,591,383,441
291934,313,504,430
291950,518,605,455
291966,509,583,445
291982,285,497,491
291998,473,377,461
292014,282,597,402
292029,695,470,426
292045,225,566,420
292061,670,394,420
292077,487,628,430
292093,731,198,433
292109,242,506,424
292124,595,579,422
292140,395,574,428
292156,251,603,428
292172,364,477,421
292188,229,567,433
292203,443,586,444
292219,655,546,429
292235,396,427,432
292251,381,597,437
292267,267,260,426
292283,289,573,433
292298,427,583,441
292314,280,590,441
292330,245,593,431
292346,721,388,401
292362,274,563,411
292377,283,591,406
292393,274,539,424
292409,503,556,426
292425,232,568,468
292441,217,595,435
292457,193,577,442
292472,413,578,417
292488,327,230,420
292504,352,444,411
292520,228,592,411
292536,360,571,411
292551,246,605,413
292567,533,585,428
292583,247,579,421
292599,229,581,423
292615,337,614,417
292631,362,531,415
292646,360,543,438
292662,336,560,433
292678,262,584,417
292694,371,453,418
292710,486,599,412
292725,510,582,421
292741,497,567,408
292757,282,578,413
292773,265,225,406
292789,279,522,420
292804,438,588,407
292820,422,604,418
292836,682,602,418
292852,719,519,418
292868,719,591,416
292884,268,571,414
292899,544,495,421
292915,374,303,423
292931,305,433,437
292947,509,623,428
292963,308,601,436
292978,280,474,421
292994,408,363,431
293010,338,582,428
293026,297,551,440
293042,325,134,436
293058,735,481,427
293073,520,576,424
293089,413,599,429
293105,277,601,430
293121,348,220,466
293137,400,540,419
293153,368,483,437
293168,463,541,434
293184,503,428,436
293200,830,594,442
293216,296,622,424
293232,247,634,416
293247,680,593,410
293263,530,557,421
293279,410,566,404
293295,363,595,410
293311,356,470,415
293327,442,585,419
293342,491,391,425
293358,730,547,416
293374,373,373,423
293390,378,588,427
293406,715,590,439
293421,660,547,421
293437,201,576,422
293453,565,561,425
293469,291,572,422
293485,657,584,422
293501,564,587,427
293516,305,326,416
293532,371,561,428
293548,417,587,418
293564,674,416,438
293580,493,495,423
293595,663,567,400
293611,633,361,418
293627,360,335,415
293643,287,609,408
293659,240,533,412
293675,487,505,409
293690,674,145,411
293706,617,578,418
293722,399,440,416
293738,251,565,426
293754,234,508,426
293769,252,423,429
293785,258,213,427
293800,527,91,425
293817,560,421,443
293833,515,569,442
293848,333,410,417
293864,556,562,430
293880,280,583,412
293896,336,564,419
293912,371,187,424
293928,411,372,409
293943,311,577,425
293959,793,588,425
293975,839,540,426
293991,284,336,421
294007,466,555,429
294022,352,400,412
294038,312,565,410
294054,605,529,416
294070,475,531,407
294086,477,549,417
294102,484,600,403
294117,673,594,405
294133,289,248,399
294149,380,564,426
294165,463,557,420
294181,661,536,432
294196,348,546,401
294212,579,552,437
294228,303,537,430
294244,750,581,439
294260,702,588,413
294276,727,481,427
294291,665,595,414
294307,313,571,406
294323,556,566,418
294339,406,575,417
294355,622,585,424
296070,24
296080,211,552,425
296090,290,559,420
296100,760,266,418
296110,721,564,422
296120,491,553,412
296130,251,562,421
296140,506,572,417
296150,690,355,423
296160,682,567,444
296170,344,557,429
296180,700,579,425
296190,263,324,432
296200,217,384,441
296210,303,557,461
296220,346,518,450
296230,382,526,455
296240,687,489,423
296250,337,564,438
296260,391,538,439
296270,277,561,429
296280,252,559,455
296290,254,547,441
296300,222,490,439
296314,256,369,417
296324,243,408,408
296334,280,580,375
296344,302,433,366
296354,831,601,376
296364,468,596,316
296374,415,590,339
296384,498,478,413
296394,395,570,429
296404,437,553,486
296414,488,592,482
296424,719,377,481
296434,538,283,450
296444,346,571,478
296454,229,123,498
296464,350,268,463
296474,652,549,467
296484,605,541,438
296494,495,546,440
296504,563,460,428
296514,667,552,430
296524,290,416,434
296534,706,567,439
296544,231,325,450
296554,718,571,436
296564,489,584,434
296574,334,581,433
296584,324,413,427
296594,305,551,424
296604,299,564,462
296617,522,560,444
296633,437,593,468
296648,343,561,466
296664,481,567,469
296680,537,451,472
296696,407,579,435
296712,270,532,427
296727,504,538,468
296743,767,585,469
296759,239,556,452
296775,695,477,450
296791,305,395,449
296807,290,563,449
296822,490,574,427
296838,663,479,435
296854,456,581,459
296870,337,384,455
296886,682,579,432
296901,725,550,453
296917,410,554,443
296933,364,544,442
296949,330,322,443
296965,334,539,461
296981,652,567,438
296996,677,565,411
297012,382,561,411
297028,502,525,432
297044,661,537,439
297060,395,566,442
297076,277,547,432
297091,657,552,428
297107,240,532,431
297123,364,548,438
297139,634,523,456
297155,480,550,443
297170,514,551,437
297186,371,552,432
297202,759,546,442
297218,368,537,442
297234,453,509,440
297250,362,558,458
297265,454,435,459
297281,329,590,447
297297,442,545,451
297313,555,469,442
297329,443,561,435
297344,423,541,437
297360,385,529,436
297376,266,559,462
297392,256,582,433
297408,296,350,422
297424,247,336,434
297439,388,568,422
297455,541,344,420
297471,547,373,400
297487,427,651,420
297503,433,590,437
297518,509,551,444
297534,521,556,441
297550,501,558,433
297566,515,577,443
297582,805,542,454
297598,466,548,404
297613,680,449,431
297629,569,590,424
297645,361,571,420
297661,371,550,435
297677,241,579,429
297692,523,453,429
297708,694,535,428
297724,300,529,441
297740,274,549,430
297756,372,517,428
297772,282,533,436
297787,752,325,441
297803,612,547,436
297819,276,539,448
297835,602,314,433
297851,365,558,485
297866,316,548,453
297882,390,562,449
297898,273,479,440
297914,752,544,436
297930,551,547,433
297945,371,535,434
297961,178,567,435
297977,266,571,422
297993,371,571,418
298009,332,464,423
298025,290,185,421
298040,849,217,420
298056,407,569,425
298072,430,561,420
298088,366,579,419
298104,465,490,436
298119,256,491,422
298135,417,575,426
298151,389,497,439
298167,489,596,430
298183,268,576,410
298199,345,526,426
298214,507,528,424
298230,564,533,431
298246,253,517,423
298262,390,487,426
298278,722,543,445
298293,250,557,448
298309,365,520,470
298325,350,541,454
298341,500,525,434
298357,590,532,426
298373,590,578,450
298388,410,450,425
298404,654,577,464
298420,583,427,475
298436,338,569,447
298452,677,538,427
298467,701,519,434
298483,457,508,426
298499,563,221,455
298515,415,519,438
298531,466,528,438
298547,840,578,436
298562,473,561,425
298578,693,557,428
298594,377,538,461
298610,299,501,430
298626,352,553,431
298641,330,490,429
298657,749,576,428
298673,453,439,427
298689,260,550,439
298705,614,578,427
298721,712,508,444
298736,522,540,422
298752,377,297,444
298768,249,540,434
298784,474,251,432
298800,341,490,433
298815,703,348,437
298831,729,533,427
298847,706,469,428
298863,398,539,440
298879,599,566,437
298895,293,533,430
298910,362,555,435
298926,485,544,425
298942,489,545,431
298958,349,524,414
298974,826,520,416
298989,354,457,405
299005,719,531,427
299021,428,495,426
299037,290,569,423
299053,198,546,430
299069,358,546,439
299084,272,405,436
299100,234,315,422
299116,314,480,433
299132,249,530,428
299148,271,524,419
299163,704,425,424
299179,539,513,414
299195,298,544,425
299211,211,546,424
299227,557,523,424
299243,297,575,393
299258,795,547,399
299274,426,514,421
299290,215,563,418
299306,723,553,432
299322,625,525,414
299337,365,552,444
299353,336,544,469
299369,371,542,481
299385,215,481,426
299401,679,300,469
299417,374,528,453
299432,653,524,444
299448,675,540,450
299464,504,445,447
299480,338,490,454
299496,304,564,449
299511,424,509,454
299527,404,495,458
299543,494,520,433
299559,317,507,421
299575,308,560,410
299591,626,433,423
299606,723,528,450
299622,325,527,464
299638,413,475,466
299654,521,539,452
299670,351,532,465
299685,302,517,435
299701,418,541,417
299717,748,522,431
299733,312,534,433
299749,344,551,433
299764,273,554,439
299780,208,520,447
299796,284,468,426
299812,196,513,446
299828,711,424,433
299844,300,546,430
299859,348,549,441
299875,622,555,432
299891,253,570,424
299907,400,468,443
299923,728,585,442
299938,658,563,446
299954,566,371,439
299970,432,340,414
299986,494,392,432
300002,604,569,459
300018,558,334,449
300033,624,553,451
300049,507,542,586
300065,399,520,446
300081,266,569,452
300097,439,580,437
300112,339,546,424
300128,714,556,454
300144,257,561,472
300160,323,512,471
300176,358,519,415
300192,330,564,425
300207,302,518,413
300223,719,517,453
300239,298,536,476
300255,199,434,487
300271,715,519,423
300286,451,532,433
300302,310,544,434
300318,280,578,432
300334,250,567,435
300350,286,574,430
300366,320,270,405
300381,222,545,344
300397,192,542,329
300413,271,531,371
300429,352,560,389
300445,724,431,416
300461,504,512,412
300476,468,543,422
300492,413,537,413
300508,703,539,440
300524,436,521,491
300540,310,425,478
300555,438,541,468
300571,574,584,520
300587,680,556,485
300603,450,361,450
300619,245,454,468
300635,275,548,470
300650,528,592,473
300666,331,621,456
300682,586,563,452
300698,457,308,420
300714,395,570,472
300729,579,557,463
300745,437,539,468
300761,461,362,467
300777,364,547,454
300793,384,499,465
300809,373,519,471
300824,635,521,462
300840,722,532,511
300856,256,523,453
300872,679,548,466
300888,337,535,465
300903,310,540,462
300919,276,543,458
300935,277,556,492
300951,669,554,498
300967,240,308,474
300983,550,559,493
300998,339,320,447
301014,342,577,409
301030,408,558,424
301046,586,255,519
301062,423,497,503
301077,491,533,521
301093,719,554,507
301109,403,538,483
301125,422,543,515
301141,343,530,454
301157,312,550,488
301172,505,573,484
301188,392,575,454
301204,335,583,452
301220,214,562,451
301236,472,533,448
301251,392,545,468
301267,675,543,460
301283,369,528,454
301299,362,532,448
301315,359,541,428
301331,345,540,479
301346,756,379,461
301362,792,514,471
301378,831,540,493
301394,772,548,457
301410,313,527,469
301425,278,550,501
301440,314,97,479
301457,340,473,477
301473,552,545,463
301489,262,545,461
301504,205,549,435
301520,343,495,416
301536,583,572,449
301552,226,338,413
301568,638,567,447
301584,308,561,441
301599,278,477,439
301615,325,571,447
301631,859,222,493
301647,683,547,482
301663,639,568,469
301678,417,565,452
301694,520,531,443
301710,528,493,471
301726,233,564,482
301742,242,549,475
301758,312,546,441
301773,257,532,451
301789,352,551,425
301805,717,377,425
301821,327,555,471
301837,623,567,473
301852,809,546,477
301868,390,523,480
301884,421,503,483
301900,287,544,490
301916,281,546,459
301932,342,542,482
301947,548,505,470
301963,645,540,467
301979,579,556,455
301995,446,502,468
302011,385,536,464
302026,592,548,461
302042,691,534,437
302058,247,560,480
302074,641,565,487
302090,622,552,507
302106,197,536,482
302121,623,554,449
302137,476,374,451
302153,655,582,485
302169,667,580,457
302185,551,451,476
302200,646,501,468
302216,233,496,467
302232,592,519,460
302248,307,512,452
302264,264,575,468
302279,315,375,476
302295,370,281,476
302311,644,528,474
302327,569,427,481
302343,519,567,485
302359,585,537,479
302374,553,529,458
302390,505,567,462
302406,241,589,470
302422,375,570,477
302438,592,349,486
302453,663,414,500
302469,599,586,469
302485,583,552,455
302501,562,508,449
302517,366,501,464
302533,441,572,485
302548,408,559,501
302564,278,524,479
302580,658,554,453
302596,603,557,497
302612,318,574,505
302627,321,519,502
302643,266,526,479
302659,596,537,482
302675,400,523,503
302691,666,533,479
302707,696,515,500
302722,498,542,494
302738,513,547,489
302754,356,554,512
302770,346,447,486
302786,678,298,493
302801,679,479,487
302817,370,558,493
302833,645,548,496
302849,661,567,487
302865,463,561,496
302881,257,500,480
302896,482,561,487
302912,574,590,486
302928,425,433,480
302944,465,570,483
302960,434,575,474
302975,271,526,479
302991,322,401,503
303007,331,565,491
303023,315,542,493
303039,652,567,489
303055,402,536,480
303070,311,550,474
303086,369,523,472
303102,358,554,481
303118,331,540,464
303134,340,540,482
303149,374,528,472
303165,747,533,468
303181,313,524,487
303197,725,558,482
303213,281,549,461
303229,438,537,463
303244,325,546,458
303260,427,520,473
303276,704,364,499
303292,396,451,499
303308,310,522,508
303323,464,519,518
303339,428,481,513
303355,561,520,513
303371,488,455,505
303387,719,556,502
303403,313,549,483
303418,425,397,503
303434,377,456,528
303450,632,594,503
303466,382,551,479
303482,535,558,500
303497,317,540,493
303513,463,530,503
303529,523,524,501
303545,578,518,509
303561,373,517,516
303577,305,441,509
303592,327,556,513
303608,342,476,508
303624,326,543,483
303640,389,509,487
303656,529,525,495
303671,354,561,488
303687,356,448,490
303703,745,538,474
303719,271,555,484
303735,329,570,482
303751,372,554,474
303766,318,305,482
303782,689,569,478
303798,463,520,488
303814,486,528,494
303830,565,487,483
303846,489,543,476
303861,554,528,483
303877,361,549,519
303893,244,553,513
303909,778,475,513
303925,285,549,498
303940,655,443,506
303956,319,402,503
303972,308,337,488
303988,685,256,488
304004,297,467,490
304020,563,574,493
304035,455,559,487
304051,315,445,485
304067,438,537,505
304083,397,546,519
304099,399,505,513
304114,552,102,513
304130,521,492,512
304146,349,419,513
304162,349,460,513
304178,307,549,512
304194,340,611,506
304209,306,569,506
304225,330,570,502
304241,298,579,506
304257,305,574,491
304273,290,282,475
304288,306,544,478
304304,256,589,508
304320,282,608,506
304336,446,556,488
304352,517,328,501
304368,497,356,508
304383,492,494,498
304399,403,548,502
304415,466,523,512
304431,392,545,497
304447,155,559,500
304462,498,566,503
304478,615,514,516
304494,362,520,513
304510,257,521,513
304526,398,507,501
304542,386,306,516
304557,494,523,504
304573,864,260,512
304589,545,568,497
304605,686,481,467
304621,348,357,514
304636,406,560,522
304652,439,307,513
304668,440,431,513
304684,357,375,513
304700,361,460,513
304716,274,514,513
304731,263,528,513
304747,352,540,512
304763,652,567,512
304779,309,550,512
304795,528,309,512
304810,251,576,512
304826,264,561,372
304842,451,450,483
304858,304,226,490
304874,437,570,474
304890,346,571,499
304905,288,574,507
304921,455,470,520
304937,876,548,514
304953,378,552,513
304969,760,577,512
304984,558,423,512
305000,413,378,513
305016,307,463,512
305032,472,559,512
305048,421,396,512
305064,613,335,513
305079,396,408,512
305095,430,397,512
305111,316,304,513
305127,314,562,495
305143,307,473,518
305158,252,563,480
305174,312,531,474
339840,629,526,515
339850,,533,513
339860,337,585,512
339870,373,543,514
339880,361,273,514
339890,650,573,513
339900,638,302,513
339910,514,447,514
339920,537,588,515
339930,409,553,512
339940,288,582,514
339950,666,560,512
339960,500,547,512
339970,215,535,513
339980,401,561,513
339990,602,581,512
340000,385,542,512
340010,637,525,512
340020,563,555,513
340030,420,586,512
340040,519,545,512
340050,403,455,511
340060,499,579,509
340070,399,562,505
340080,458,570,503
340090,656,582,513
340100,219,522,515
340110,528,556,512
340120,336,179,512
340130,199,550,512
340140,414,538,516
340150,289,529,512
340160,285,495,511
340170,244,546,512
340180,373,557,512
340190,221,562,512
340200,494,466,512
340210,322,527,510
340220,473,544,499
340230,640,438,500
340240,593,538,495
340250,381,485,512
340260,288,469,518
340270,235,533,501
340280,318,533,503
340290,821,544,505
340300,433,6,501
340310,421,580,484
340320,593,555,497
340330,703,579,514
340340,630,560,501
340350,308,554,509
340360,406,585,525
340370,576,402,514
340386,628,547,509
340402,605,525,514
340418,459,522,506
340434,510,546,502
340449,635,548,517
340465,331,544,499
340481,267,558,499
340497,355,527,501
340513,445,538,518
340528,694,555,514
340544,316,567,510
340560,463,544,509
340576,371,371,518
340592,332,539,512
340608,504,563,511
340623,290,450,502
340639,383,456,467
340655,390,559,465
340669,315,9,521
340687,651,563,517
340702,491,527,513
340718,309,422,513
340734,274,398,507
340750,669,410,515
340766,472,567,513
340781,184,243,512
340797,239,549,502
340813,308,576,516
340829,280,542,512
340845,237,549,512
340861,317,536,512
340876,422,429,512
340892,448,537,512
340908,237,486,512
340924,235,517,513
340940,243,538,513
340955,452,558,512
340971,469,616,506
340987,698,549,503
341003,477,560,500
341019,606,550,498
341035,618,559,509
341050,374,571,494
341066,574,364,490
341082,664,528,521
341098,638,548,517
341114,687,458,513
341128,397,62,512
341145,690,554,513
341161,351,408,512
341177,381,387,510
341193,211,535,495
341209,383,515,495
341224,712,515,514
341240,271,571,516
341256,567,550,499
341272,540,546,499
341288,368,334,501
341303,372,540,499
341319,751,525,485
341335,509,504,471
341351,322,537,492
341367,319,552,495
341383,276,553,511
341398,402,559,517
341414,491,540,514
341430,421,533,512
341446,324,499,512
341462,422,546,513
341477,220,518,514
341493,588,543,508
341509,747,529,513
341525,465,528,512
341541,572,520,512
341557,708,296,513
341572,207,537,508
341588,357,545,501
341604,310,379,514
341620,576,507,516
341636,324,519,505
341651,696,549,491
341667,411,571,484
341683,246,533,500
341699,312,555,506
341715,418,305,506
341731,360,522,516
341746,290,527,514
341762,346,552,512
341778,205,419,513
341794,444,423,512
341810,449,559,513
341825,404,550,515
341841,362,553,513
341857,594,353,510
341873,190,556,513
341889,300,544,507
341905,291,541,507
341920,492,534,518
341936,295,239,513
341952,661,528,512
341968,531,568,513
341984,260,557,512
341999,214,532,500
342015,753,544,485
342031,235,553,483
342047,251,530,491
342063,400,499,493
342079,301,517,503
342094,478,503,496
342110,489,557,518
342126,303,246,517
342142,400,516,513
342158,527,550,513
342173,267,535,512
342189,591,532,513
342205,241,558,515
342221,763,417,513
342237,554,571,513
342253,276,542,507
342268,721,538,502
342284,689,561,489
342300,456,538,491
342316,373,531,494
342332,639,525,489
342348,651,323,474
342363,647,561,503
342379,241,340,515
342395,181,573,514
342411,783,577,505
342427,240,439,509
342442,390,557,514
342458,524,528,512
342474,320,290,513
342490,233,513,513
342506,298,552,514
342522,631,477,511
342537,377,561,512
342553,643,548,513
342569,658,547,512
342585,204,536,506
342601,407,523,507
342616,255,555,510
342632,659,540,518
342648,509,553,513
342664,683,498,512
342680,752,539,512
342696,750,530,495
342711,276,344,479
342727,741,582,492
342743,579,528,511
342759,359,471,490
342775,324,526,490
342790,443,574,515
342806,400,540,520
342822,672,502,514
342838,665,528,512
342854,205,540,512
342870,696,434,515
342885,586,554,513
342901,564,526,512
342917,202,544,512
342933,728,533,513
342949,396,524,513
342964,370,525,512
342980,287,532,508
342996,184,516,513
343012,199,555,495
343028,757,461,487
343044,285,567,488
343059,378,544,497
343075,269,545,498
343091,736,564,489
343107,678,549,502
343123,625,534,520
343138,405,551,513
343154,700,548,513
343170,335,547,510
343186,264,525,512
343202,547,540,514
343218,369,399,509
343233,619,536,510
343249,661,515,510
343265,327,455,497
343281,479,507,479
343297,560,531,509
343312,357,543,520
343328,356,537,514
343344,492,538,514
343360,528,523,512
343376,635,556,502
343392,245,545,480
343407,505,522,498
343423,259,532,522
343439,535,488,513
343455,301,534,506
343471,320,309,489
343486,339,575,520
343502,453,526,515
343518,550,513,513
343534,240,530,511
343550,359,539,505
343566,256,534,509
343581,228,534,514
343597,529,543,512
343613,434,440,512
343629,320,431,512
343645,252,434,513
343660,718,557,506
343676,629,542,514
343692,312,541,493
343708,383,453,474
343724,223,553,485
343740,283,562,486
343755,499,567,481
343771,424,527,471
343787,330,558,464
343803,684,514,504
343819,225,545,520
343834,364,537,513
343850,273,542,513
343866,681,487,513
343882,376,557,512
343898,677,530,513
343914,402,544,513
343929,299,531,513
343945,449,502,512
343961,362,470,501
343977,702,530,516
343993,463,568,514
344008,246,552,513
344024,308,309,513
344040,277,581,512
344056,281,544,500
344072,442,471,474
344087,372,502,423
344103,292,551,502
344119,301,536,490
344135,367,300,488
344151,390,304,487
344167,365,536,524
344182,364,538,514
344198,360,537,513
344214,455,395,512
344230,251,516,512
344246,299,552,513
344261,276,559,513
344277,258,525,512
344293,276,540,513
344309,226,526,513
344325,694,534,512
344341,209,544,514
344356,215,528,508
344372,344,235,507
344388,484,539,492
344404,348,542,496
344420,250,535,495
344435,520,529,492
344451,363,540,496
344467,417,562,508
344483,208,537,518
344499,774,395,513
344515,332,547,512
344530,631,554,513
344546,707,545,513
344561,358,48,512
344578,411,557,512
344594,303,577,513
344609,258,355,512
344625,234,530,513
344641,311,460,513
344657,308,529,514
344673,351,524,513
344689,454,440,513
344704,782,541,513
344720,374,557,512
344736,509,530,513
344752,824,432,512
344768,567,499,493
344783,402,538,470
344799,779,539,505
344815,561,406,507
344831,305,521,500
344847,408,551,504
344860,364,5,514
344878,427,508,517
344894,427,489,513
344910,595,585,513
344926,392,565,512
344941,261,576,513
344957,239,582,512
344973,410,485,512
344989,373,430,512
345005,745,515,512
345021,606,427,512
345036,242,274,513
345052,373,426,499
345068,275,495,481
345084,452,570,502
345100,236,541,500
345116,735,443,504
345131,319,291,517
345147,573,579,511
345163,486,559,506
345179,610,547,515
345195,433,534,513
345210,690,544,512
345226,343,544,513
345242,541,544,491
345258,585,542,507
345274,262,342,515
345290,388,540,513
345305,446,521,512
345321,625,477,513
345337,659,430,513
345353,339,494,513
345369,235,554,512
345384,297,531,513
345400,288,556,513
345416,706,509,513
345432,279,561,506
345448,735,387,501
345464,417,515,449
345479,650,536,447
345495,474,567,499
345511,279,564,490
345527,268,535,498
345543,397,517,514
345558,366,555,516
345574,332,544,513
345590,304,495,512
345606,535,562,513
345622,325,554,512
345638,259,521,513
345653,723,534,512
345669,706,588,512
345685,253,521,512
345701,310,268,513
345717,280,544,512
345732,437,244,505
345748,535,538,509
345764,662,393,502
345780,274,542,493
345796,305,310,486
345812,338,545,524
345827,251,545,498
345843,520,551,512
345859,600,574,503
345875,672,507,516
345891,419,472,513
345906,227,497,512
345922,498,322,513
345938,613,548,512
345954,654,480,512
345970,457,566,514
345986,376,583,512
346001,285,603,513
346017,370,562,512
346033,310,537,512
346049,442,384,512
346065,548,614,512
346081,627,554,513
346096,328,570,513
346112,331,538,512
346128,685,285,506
346144,594,551,511
346160,251,547,490
346175,739,548,470
346191,213,525,482
346207,312,428,483
346223,631,571,491
346239,241,554,513
346255,545,462,518
346270,561,559,513
346286,180,527,512
346302,244,529,513
346318,329,542,512
346334,420,529,512
346349,528,527,513
346365,293,507,513
346381,300,531,512
346397,269,511,513
346413,480,507,512
346429,354,417,514
346444,242,532,512
346460,361,481,495
346476,176,545,501
346492,282,549,511
346508,728,530,517
346523,454,549,513
346539,505,539,513
346555,383,479,512
346571,275,527,513
346587,237,519,514
346603,450,448,514
346618,454,540,512
346634,449,442,513
346650,356,536,513
346666,577,549,513
346682,351,527,513
346697,304,544,512
346713,539,503,513
346729,718,489,512
346745,611,518,513
346761,730,547,513
346777,604,421,512
346792,385,492,513
346808,605,511,513
346824,222,512,505
346840,372,554,471
346856,347,548,431
346872,511,546,516
346887,692,541,495
346903,207,549,495
346919,443,553,516
346935,561,541,516
346951,381,560,513
346966,300,524,512
346982,663,504,513
346998,305,509,513
347014,629,362,512
347030,254,526,513
347046,267,524,512
347061,363,532,512
347077,255,197,512
347093,650,559,513
347109,696,547,513
347125,332,498,512
347140,256,522,500
347156,484,547,512
347172,266,521,495
347188,171,128,503
347204,583,529,509
347220,685,207,519
347235,676,463,513
347251,563,528,513
347267,624,492,513
347283,164,550,511
347299,173,548,512
347314,292,538,513
347330,426,561,501
347346,260,599,516
347362,455,561,513
347378,669,481,512
347394,692,549,513
347409,664,532,512
347425,685,520,513
347441,688,539,511
347457,361,569,513
347473,419,539,512
347488,357,541,511
347504,217,520,512
347520,206,558,503
347536,395,590,475
347552,341,560,450
347567,544,514,507
347583,295,491,520
347599,311,510,507
347615,651,561,519
347631,374,546,513
347647,382,436,513
347662,396,539,512
347678,294,508,512
347694,279,349,513
347710,382,498,513
347726,578,542,512
347741,238,528,512
347757,519,504,513
347773,197,575,512
347789,210,557,512
347805,700,533,512
347821,348,537,513
347836,465,538,515
347852,436,552,493
347868,254,545,494
347884,663,528,515
347900,314,518,501
347915,184,491,521
347931,699,495,501
347947,381,516,505
347963,253,531,516
347979,429,523,512
347995,570,251,513
348010,318,550,512
348025,461,62,514
348042,544,525,512
348058,480,599,513
348074,514,180,512
348089,519,561,513
348105,239,500,512
348121,707,513,506
348137,290,457,518
348153,211,460,513
348169,374,525,513
348184,359,487,512
348200,631,533,512
348216,717,493,512
348232,508,456,512
348248,444,287,483
348263,302,542,519
348279,306,526,513
348295,339,552,512
348311,287,450,513
348327,429,533,512
348343,322,496,513
348358,288,473,512
348374,264,544,512
348390,288,514,505
348406,407,544,516
348422,192,452,514
348437,713,512,512
348453,295,546,512
348469,259,538,513
348485,723,542,512
348501,220,338,508
348516,255,574,481
348532,538,533,477
348548,309,559,509
348564,373,175,508
348580,307,622,517
348596,627,548,513
348611,376,567,513
348627,631,533,512
348643,628,566,512
348659,212,516,512
348675,638,525,512
348690,637,539,513
348706,653,537,513
348722,473,683,479
348738,399,530,508
348754,203,200,515
348770,347,410,513
348785,205,591,512
348801,558,545,513
348817,408,531,509
348833,310,524,513
348849,582,531,514
348864,300,480,513
348880,278,509,513
348896,661,192,513
348912,254,532,513
348928,612,499,510
348944,477,570,478
353308,15
