100119,421,430,219
100129,425,400,220
100139,479,394,302
100149,367,409,295
100161,397,413,332
100177,357,396,272
100193,469,400,301
100209,418,413,313
100225,390,388,308
100240,386,420,238
100256,413,410,277
100272,464,428,312
100288,412,503,324
100304,462,452,335
100319,455,398,224
100335,473,443,189
100351,464,470,286
100367,365,413,258
100383,407,404,286
100399,381,381,236
100414,416,397,289
100430,353,404,247
100446,396,404,244
100462,351,404,219
100478,406,429,213
100493,359,417,254
100509,403,400,243
100525,374,397,261
100541,424,413,338
100557,418,402,294
100573,399,418,284
100588,382,396,288
100604,366,405,277
100620,390,404,263
100636,384,404,267
100652,364,412,276
100667,355,400,250
100683,378,422,320
100699,407,403,245
100715,348,398,227
100731,383,411,277
100747,363,404,235
100762,416,408,300
100778,402,406,240
100794,413,399,254
100810,348,404,212
100826,402,404,249
100841,370,401,305
100857,426,393,287
100873,357,404,214
100889,398,398,257
100905,364,409,214
100921,370,405,276
100936,354,392,264
100952,457,400,213
100968,386,438,233
100984,444,416,343
101000,503,469,465
101015,450,489,430
101031,456,475,275
101047,480,491,291
101063,496,507,483
101079,494,512,508
101095,479,512,313
101110,508,495,353
101126,498,509,491
101142,500,504,394
101158,506,494,483
101174,462,494,276
101189,505,509,246
101205,500,510,477
101221,509,484,490
101237,499,468,337
101253,509,472,272
101269,485,499,248
101284,475,504,255
101300,508,505,327
101316,509,511,330
101332,479,510,252
101348,508,504,477
101364,510,510,481
101379,511,509,283
101395,499,508,262
101411,491,512,280
101427,506,508,296
101443,511,504,275
101458,507,510,481
101474,498,490,508
101490,507,508,355
101506,504,510,350
101522,503,507,409
101538,502,513,367
101553,508,505,353
101569,514,514,492
101585,504,515,509
101601,512,512,501
101617,482,514,511
101632,506,500,510
101648,504,513,472
101664,512,507,362
101680,507,510,493
101696,512,511,509
101712,505,508,483
101727,511,510,397
101743,500,507,291
101759,476,508,285
101775,439,509,468
101791,428,459,504
101807,501,507,394
101822,436,457,322
101838,481,435,473
101854,482,418,249
101870,425,438,203
101886,407,416,205
101901,422,426,212
101917,363,405,338
101933,447,398,263
101949,474,416,311
101965,472,440,247
101981,438,430,297
101996,499,427,280
102012,393,428,213
102028,491,430,390
102044,389,425,326
102060,380,459,291
102075,487,496,384
102091,502,502,490
102107,504,505,344
102123,493,511,251
102139,508,514,464
102155,494,492,501
102170,463,498,278
102186,427,457,241
102202,388,495,301
102218,461,421,244
102234,374,421,240
102249,427,398,243
102265,380,407,314
102281,484,427,317
102297,410,409,245
102313,489,431,251
102329,422,472,239
102344,447,488,431
102360,530,468,432
102376,499,422,277
102392,490,499,453
102408,479,512,503
102423,483,492,510
102439,458,454,411
102455,498,451,406
102471,433,476,443
102487,476,433,502
102503,463,443,287
102518,482,456,455
102534,446,501,436
102550,501,502,503
102566,487,456,303
102582,482,502,292
102597,433,433,412
102613,500,461,493
102629,489,469,233
102645,453,446,221
102661,447,510,279
102677,457,473,412
102692,486,468,266
102708,468,460,226
102724,390,420,259
102740,402,423,368
102756,384,512,323
102771,380,421,273
102787,433,404,308
102803,383,445,331
102819,418,401,343
102835,442,434,376
102851,388,415,228
102866,459,410,242
102882,387,396,325
102898,479,435,348
102914,404,402,222
102930,384,399,290
102946,444,420,308
102961,366,437,217
102977,470,425,181
102993,457,422,342
103009,500,469,345
103025,406,413,223
103040,409,406,225
103056,427,412,236
103072,357,409,259
103088,395,408,306
103104,366,426,207
103120,475,415,221
103135,415,419,220
103151,390,400,233
103167,384,405,283
103183,422,387,231
103199,409,403,251
103214,356,408,242
103230,390,395,221
103246,381,389,199
103262,400,426,260
103278,374,410,219
103294,357,408,230
103309,386,402,247
103325,398,406,295
103341,376,416,346
103357,417,414,225
103373,388,406,287
103388,388,401,217
103404,358,433,207
103420,377,434,283
103436,380,404,239
103452,350,403,239
103468,413,395,254
103483,370,404,262
103499,425,400,270
103515,381,420,289
103531,482,414,259
103547,406,433,363
103562,484,479,227
103578,434,475,223
103594,475,492,453
103610,447,491,439
103626,503,508,288
103642,487,511,405
103657,472,496,302
103673,495,507,477
103689,509,510,502
103705,505,486,291
103721,511,496,371
103736,510,504,329
103752,495,509,294
103768,493,489,271
103784,508,506,290
103800,507,511,300
103816,511,497,367
103831,483,510,304
103847,508,510,489
103863,497,512,512
103879,509,512,403
103895,510,512,437
103911,508,459,507
103926,506,501,377
103942,503,510,388
103958,510,510,427
103974,512,509,447
103990,510,511,386
104005,500,512,430
104021,510,512,374
104037,511,501,399
104053,513,505,464
104069,512,510,506
104085,498,511,510
104100,510,512,502
104116,512,512,509
104132,512,512,433
104148,512,512,480
104164,513,512,505
104179,492,511,492
104195,509,512,503
104211,512,512,518
104227,513,511,511
104243,501,512,515
104259,510,509,509
104274,512,509,505
104290,513,500,452
104306,503,508,463
104322,487,510,452
104338,509,496,384
104353,511,510,505
104369,512,509,466
104385,511,511,352
104401,512,513,404
104417,504,511,353
104433,511,511,426
104448,483,512,377
104464,508,510,374
104480,508,509,419
104496,501,510,500
104512,510,511,510
104528,512,481,474
104543,511,509,482
104559,512,510,372
104575,513,510,491
104591,486,512,510
104607,456,444,295
104622,484,471,409
104638,468,505,273
104654,507,511,244
104670,498,510,446
104686,510,507,503
104702,510,479,327
104717,504,505,488
104733,463,477,326
104749,481,486,434
104765,413,440,414
104781,380,418,245
104796,409,420,245
104812,364,396,294
104828,392,402,206
104844,379,383,248
104860,383,377,253
104876,379,378,271
104891,360,402,181
104907,384,399,242
104923,382,399,223
104939,373,397,184
104955,367,397,195
104971,381,395,218
104986,369,394,220
105002,345,399,226
105018,368,387,199
105034,366,396,192
105050,375,394,228
105065,375,408,274
105081,359,412,219
105097,366,387,202
105113,350,382,254
105129,377,397,186
105145,347,386,235
105160,388,395,198
105176,363,408,207
105192,367,399,237
105208,380,391,224
105224,346,398,220
105239,351,400,223
105255,366,406,224
105271,350,396,190
105287,380,444,218
105303,341,420,244
105319,414,407,180
105334,460,407,228
105350,463,455,287
105366,495,505,409
105382,460,499,288
105398,505,511,289
105413,461,513,400
105429,505,513,311
105445,511,510,276
105461,490,511,456
105477,510,492,488
105493,502,508,360
105508,509,510,355
105524,510,510,278
105540,511,511,324
105556,495,513,347
105572,509,513,486
105587,511,509,518
105603,511,512,397
105619,512,513,497
105635,501,513,512
105651,511,512,438
105667,506,512,452
105682,511,512,509
105698,512,513,503
105714,512,494,436
105730,512,508,502
105746,506,511,511
105761,511,508,457
105777,500,513,457
105793,509,514,509
105809,495,512,502
105825,507,512,475
105841,506,512,509
105856,506,513,439
105872,503,511,479
105888,487,513,429
105904,498,512,406
105920,502,513,491
105936,519,508,510
105951,503,512,453
105967,515,485,496
105983,516,487,493
105999,515,507,470
106015,499,511,489
106030,512,510,466
106046,514,512,505
106062,514,509,514
106078,484,512,422
106094,513,512,502
106109,510,513,508
106125,509,503,411
106141,486,512,358
106157,508,511,493
106173,511,512,526
106189,448,466,232
106204,445,498,563
106220,456,493,384
106236,495,487,224
106252,389,418,239
106268,446,467,254
106283,382,420,265
106299,461,420,204
106315,388,417,221
106331,418,402,295
106347,374,416,250
106363,368,403,183
106378,360,411,204
106394,403,412,291
106410,350,389,221
106426,351,380,251
106442,346,361,216
106457,340,354,235
106473,344,357,195
106489,363,350,174
106505,356,358,183
106521,335,344,187
106537,347,346,185
106552,351,362,214
106568,337,346,263
106584,343,348,205
106600,354,369,256
106616,352,363,198
106632,337,369,221
106647,376,376,288
106663,359,392,225
106679,353,394,194
106695,348,396,192
106711,342,386,189
106726,363,400,214
106742,363,384,208
106758,366,393,266
106774,350,403,190
106790,366,377,242
106806,351,424,244
106821,356,383,335
106837,356,405,223
106853,366,402,185
106869,361,418,200
106885,369,420,219
106900,377,420,273
106916,357,410,213
106932,370,382,188
106948,351,411,232
106964,341,382,228
106980,366,382,244
106995,340,392,199
107011,381,400,229
107027,354,394,170
107043,377,421,206
107059,350,386,178
107074,358,379,193
107090,361,418,230
107106,348,384,240
107122,357,411,190
107138,375,401,226
107154,374,404,211
107169,331,401,218
107185,392,400,225
107201,374,406,292
107217,375,403,226
107233,352,387,262
107248,349,400,195
107264,411,399,291
107280,378,413,260
107296,370,415,193
107312,394,413,164
107328,353,394,216
107343,414,409,247
107359,410,398,216
107375,351,412,312
107391,485,420,284
107407,360,414,240
107422,344,436,274
107438,405,400,261
107454,360,406,213
107470,500,425,235
107486,473,405,366
107502,475,471,227
107517,494,495,345
107533,524,520,239
107549,509,502,223
107565,467,525,467
107581,466,507,407
107596,490,519,427
107612,485,512,500
107628,475,515,375
107644,524,507,495
107660,478,502,511
107676,210,430,263
107691,339,451,289
107707,518,449,238
107723,359,437,178
107739,427,400,275
107755,447,418,271
107771,400,431,256
107786,374,425,340
107802,442,457,301
107818,391,427,165
107834,471,429,287
107850,474,481,226
107865,418,499,196
107881,486,446,301
107897,374,405,288
107913,381,411,320
107929,417,432,269
107945,457,412,251
107960,373,429,275
107976,480,418,238
107992,465,433,275
108008,386,396,286
108024,487,420,196
108039,412,412,201
108055,493,442,264
108071,397,429,269
108087,468,408,284
108103,456,411,218
108119,436,410,269
108134,461,396,282
108150,441,435,197
108166,453,432,195
108182,407,407,228
108198,418,415,315
108213,421,416,223
108229,482,399,179
108245,411,415,231
108261,441,399,196
108277,411,421,275
108293,406,417,184
108308,402,415,188
108324,394,424,271
108340,432,440,265
108356,392,432,206
108372,432,432,171
108387,379,401,233
108403,484,433,236
108419,467,385,236
108435,374,405,251
108451,411,418,192
108467,377,432,180
108482,380,421,226
108498,382,390,167
108514,356,418,214
108530,363,406,231
108546,372,406,202
108561,370,410,262
108577,407,402,212
108593,342,406,245
108609,343,401,222
108625,347,378,229
108641,326,400,173
108656,425,407,168
108672,391,400,184
108688,350,395,227
108704,381,375,226
108720,323,387,212
108736,367,378,176
108751,362,389,185
108767,344,395,170
108783,377,410,223
108799,369,394,196
108815,391,397,168
108830,356,413,239
108846,341,391,253
108862,388,410,229
108878,375,399,212
108894,381,385,205
108910,387,390,248
108925,387,406,193
108941,346,410,225
108957,354,380,219
108973,383,382,206
108989,379,402,217
109004,357,383,190
109020,347,368,157
109036,347,348,196
109052,341,333,199
109068,348,340,199
109083,331,339,171
109099,351,343,162
109115,338,367,203
109131,347,374,261
109147,382,389,654
109163,376,398,179
109178,369,397,285
109194,404,391,158
109210,410,390,187
109226,387,400,185
109242,349,400,229
109258,418,394,195
109273,383,398,198
109289,433,395,305
109305,371,430,291
109321,348,416,308
109337,408,392,195
109352,421,424,192
109368,477,466,262
109384,416,468,227
109400,470,460,248
109416,461,445,327
109432,480,442,269
109447,383,423,161
109463,407,408,284
109479,473,444,407
109495,417,408,234
109511,467,447,242
109526,465,432,267
109542,433,421,230
109558,468,412,345
109574,504,395,207
109590,386,419,202
109606,399,433,259
109621,429,404,287
109637,398,407,232
109653,493,424,244
109669,429,429,179
109685,426,397,208
109701,436,401,301
109716,441,421,216
109732,358,412,206
109748,373,435,271
109764,429,436,306
109780,473,496,245
109795,506,470,398
109811,499,510,281
109827,489,512,202
109843,466,483,402
109859,461,510,517
109875,507,514,386
109890,499,519,336
109906,458,499,453
109922,472,449,300
109938,441,407,298
109954,482,401,250
109969,363,395,235
109985,482,451,269
110001,466,485,431
110017,506,420,258
110033,442,499,175
110049,451,482,196
153952,
153962,68,411,243
153972,369,417,297
153982,353,397,267
153992,357,422,272
154004,393,387,276
154014,354,382,295
154025,348,373,262
154035,394,381,266
154045,375,393,297
154055,406,403,273
154065,379,417,241
154075,401,388,218
154085,354,403,252
154095,361,378,279
154105,453,408,250
154115,403,391,288
154126,396,387,272
154136,374,402,249
154147,383,413,271
154157,449,388,348
154168,366,405,285
154178,432,401,309
154188,474,408,283
154198,409,394,287
154208,376,425,289
154218,394,406,261
154228,448,395,317
154238,444,406,306
154248,410,397,241
154258,467,395,253
154268,388,438,284
154278,413,415,309
154288,405,427,254
154298,481,427,313
154308,460,411,230
154318,394,413,348
154328,379,408,269
154338,390,379,223
154348,398,386,265
154358,450,392,264
154368,389,391,288
154378,413,454,294
154388,437,396,234
154398,444,389,241
154408,390,413,339
154418,400,385,258
154428,386,415,260
154438,417,401,285
154448,381,403,262
154458,394,373,290
154468,377,377,295
154478,417,375,284
154488,390,389,264
154499,379,398,248
154515,386,390,302
154531,418,407,278
154547,383,430,266
154563,407,398,279
154579,378,395,276
154594,416,386,302
154610,442,411,280
154626,479,422,232
154642,385,421,303
154658,363,386,289
154673,454,417,325
154689,381,408,247
154705,416,393,247
154721,390,420,276
154737,411,420,320
154753,426,396,276
154768,385,396,282
154784,371,397,290
154800,375,420,302
154816,360,420,276
154832,460,394,293
154847,393,398,250
154863,377,416,268
154879,349,377,295
154895,383,370,261
154911,426,392,293
154927,345,411,260
154942,352,402,284
154958,393,437,271
154974,355,389,291
154990,372,401,287
155006,376,385,289
155021,404,410,309
155037,373,409,322
155053,343,390,293
155069,388,401,274
155085,400,401,300
155101,386,382,307
155116,374,387,265
155132,385,392,285
155148,372,393,269
155164,371,426,275
155180,379,413,261
155195,412,379,252
155211,389,378,260
155227,392,387,295
155243,386,377,258
155259,389,407,264
155275,364,392,311
155290,373,384,273
155306,416,419,292
155322,404,400,228
155338,391,408,252
155354,386,378,262
155369,370,389,248
155385,399,389,281
155401,370,392,242
155417,349,395,259
155433,360,383,299
155449,403,390,272
155464,393,376,281
155480,406,378,273
155496,350,369,284
155512,383,410,310
155528,388,403,237
155543,367,389,290
155559,385,388,288
155575,351,400,296
155591,367,400,268
155607,423,375,263
155623,367,397,305
155638,357,414,269
155654,354,395,253
155670,375,386,278
155686,379,392,283
155702,392,408,327
155717,385,415,244
155733,412,395,293
155749,397,410,257
155765,429,384,247
155781,383,395,290
155797,365,369,286
155812,371,379,308
155828,374,379,308
155844,370,397,277
155860,382,398,243
155876,464,368,246
155891,444,449,347
155907,410,453,316
155923,434,385,308
155939,423,454,436
155955,472,503,458
155971,503,421,303
155987,489,486,257
156002,459,431,341
156018,449,402,243
156034,411,387,293
156050,410,403,359
156066,397,414,301
156081,392,381,242
156097,392,393,281
156113,392,387,264
156129,379,405,271
156145,415,386,237
156160,397,371,269
156176,437,386,297
156192,428,375,281
156208,413,442,309
156224,447,387,299
156240,394,409,246
156255,413,429,315
156271,371,398,298
156287,417,398,293
156303,377,407,267
156319,396,401,311
156334,470,409,313
156350,394,417,252
156366,404,415,282
156382,387,404,312
156398,469,412,327
156414,395,388,245
156429,422,417,291
156445,423,410,320
156461,465,382,301
156477,398,386,269
156493,403,388,267
156509,378,388,282
156524,366,406,290
156540,369,426,257
156585,363,388,264
156595,358,395,254
156605,352,353,257
156615,326,345,236
156625,328,331,256
156635,336,330,248
156651,348,335,227
156667,346,330,231
156725,351,355,243
156735,338,347,236
156745,345,345,273
156755,398,397,258
156765,459,445,337
156775,430,485,269
156785,429,460,437
156795,482,494,294
156809,488,501,277
156825,482,492,416
156980,496,507,414
156990,478,507,362
157000,460,439,437
157010,464,486,355
157020,488,508,363
157030,504,508,377
157040,498,511,402
157050,477,492,403
157060,479,493,305
157071,489,483,347
157082,510,509,432
157092,495,513,381
157103,498,476,340
157113,487,508,412
157124,494,496,351
157134,498,503,430
157144,505,509,404
157154,493,509,416
157164,508,510,484
157174,505,511,354
157184,509,510,320
157194,505,481,473
157204,476,500,337
157214,482,454,383
157224,496,504,417
157236,504,511,381
157252,510,510,482
157268,511,511,477
157284,512,511,433
157299,510,511,360
157315,510,508,468
157331,500,474,361
157347,510,484,302
157363,512,508,444
157379,495,494,450
157394,505,507,246
157410,510,507,241
157426,503,497,353
157442,496,509,244
157458,509,508,205
157473,497,499,383
157489,484,473,233
157505,483,507,370
157521,477,501,268
157537,493,509,404
157553,494,503,215
157568,500,511,349
157584,491,492,251
157600,464,508,459
157616,459,510,223
157632,441,511,192
157647,451,504,339
157663,484,511,379
157679,474,444,221
157695,480,449,236
157711,464,458,363
157727,468,496,330
157742,476,478,484
157758,479,505,278
157774,485,512,454
157790,487,506,242
157806,484,510,264
157821,437,455,277
157837,442,440,283
157853,436,457,303
157869,418,445,198
157885,402,421,296
157901,442,460,244
157916,433,472,274
157932,491,506,352
157948,459,424,435
157964,431,488,355
157980,453,508,325
157995,484,512,451
158011,466,467,383
158027,490,482,326
158043,508,498,455
158059,487,510,427
158075,468,486,296
158090,481,508,279
158106,491,471,390
158122,499,443,364
158138,494,485,481
158154,497,508,464
158169,492,512,370
158185,492,511,376
158201,446,510,296
158217,469,490,427
158233,500,507,400
158249,501,500,434
158264,503,497,297
158280,500,509,445
158296,513,496,332
158312,505,509,455
158328,511,493,346
158344,513,507,262
158359,507,509,461
158375,497,504,466
158391,467,494,315
158407,460,487,445
158423,444,508,295
158438,487,510,402
158454,463,510,383
158470,483,512,367
158486,504,512,465
158502,481,497,279
158518,467,490,430
158533,498,491,325
158549,486,484,479
158565,493,486,312
158581,483,509,435
158597,478,510,279
158612,509,510,403
158628,490,505,289
158644,493,510,484
158660,500,510,484
158676,510,509,356
158692,510,511,478
158707,503,512,340
158723,500,512,427
158739,500,497,346
158755,514,483,413
158771,511,488,316
158786,516,508,487
158802,509,496,479
158818,501,509,423
158834,503,510,478
158850,502,507,394
158866,507,506,489
158881,503,498,390
158897,507,495,378
158913,499,510,417
158929,484,510,457
158945,509,510,442
158960,510,511,458
158976,511,511,505
158992,512,513,460
159008,507,513,503
159024,511,513,482
159040,513,512,449
159055,510,499,412
159071,511,497,479
159087,501,508,506
159103,503,506,458
159119,510,510,498
159134,513,512,473
159150,506,512,416
159166,509,512,438
159182,496,506,449
159198,509,511,492
159214,504,512,414
159229,506,511,338
159245,510,511,440
159261,494,508,358
159277,495,503,379
159293,488,510,366
159309,454,510,254
159324,466,495,359
159340,461,461,218
159356,425,467,300
159372,410,483,292
159388,402,463,277
159403,490,429,280
159419,455,431,262
159435,387,418,276
159451,424,409,235
159467,407,418,240
159483,393,486,333
159498,421,447,264
159514,474,505,328
159530,398,394,237
159546,406,405,308
159562,379,386,321
159577,435,442,250
159593,423,443,283
159637,445,418,309
159648,442,469,301
159658,421,439,363
159668,413,470,362
159678,429,506,316
159688,440,410,297
159704,488,444,283
159720,421,416,339
159806,408,403,332
159816,397,429,260
159826,420,383,271
159836,398,406,273
159847,431,451,280
159857,480,427,317
159953,442,445,340
159964,476,478,322
159974,417,448,255
159984,406,417,279
159996,446,435,276
160006,395,443,318
160016,403,372,247
160026,425,412,288
160036,423,439,266
160046,382,405,316
160056,381,369,305
160066,415,411,257
160076,395,398,262
160087,411,402,329
160097,438,406,274
160108,379,400,313
160118,403,431,311
160128,405,395,286
160138,476,377,251
160148,461,406,326
160159,369,436,282
160169,383,462,239
160179,400,379,258
160194,448,463,218
160210,456,440,228
160226,479,406,262
160242,391,405,264
160258,414,407,334
160273,398,459,322
160289,423,412,346
160305,431,435,290
160321,416,418,274
160337,406,481,350
160353,416,410,280
160368,452,423,375
160384,409,414,302
160400,461,437,272
160416,452,411,269
160432,406,436,381
160447,406,464,342
160463,442,435,290
160479,412,468,291
160495,397,431,375
160511,415,411,267
160527,401,480,253
160542,434,440,356
160558,404,450,305
160574,476,437,248
160590,471,492,302
160606,441,385,319
160621,479,438,240
160637,476,451,257
160653,422,400,269
160669,463,466,326
160685,414,438,256
160701,439,447,233
160716,409,424,285
160732,427,435,329
160748,400,425,235
160764,401,414,264
160780,394,440,269
160796,425,457,242
160811,394,378,245
160827,434,417,333
160843,431,431,252
160859,449,412,304
160875,450,404,290
160890,431,381,250
160906,420,392,249
160922,400,430,230
160938,425,434,282
160954,376,401,262
160970,410,411,317
160985,384,403,298
161001,407,442,206
161017,416,385,303
161033,421,385,282
161049,399,384,243
161064,396,387,225
161080,378,416,260
161096,400,420,275
161112,402,412,278
161128,400,407,236
161144,400,404,280
161159,401,427,311
161175,385,391,239
161191,433,416,267
161207,449,368,309
161223,437,392,245
161238,456,397,216
161254,368,359,272
161270,400,384,293
161286,441,400,252
161302,389,403,317
161318,383,380,240
161333,408,390,262
161349,384,397,280
161365,458,419,284
161381,378,411,247
161397,407,399,254
161412,382,400,283
161428,370,446,253
161444,381,458,265
161460,364,407,237
161476,399,413,304
161492,369,380,262
161507,398,375,221
161523,405,399,257
161539,403,403,246
161555,402,399,259
161571,356,413,263
161586,368,381,279
161602,382,407,246
161618,402,424,241
161634,422,407,280
161650,435,392,281
161665,379,396,268
161681,414,380,293
161697,477,415,238
161713,462,431,238
161729,471,390,282
161745,438,386,242
161760,388,376,286
161776,436,393,275
161792,386,438,261
161808,419,426,284
161824,356,427,232
161840,359,404,227
161855,384,398,283
161871,402,379,216
161887,398,407,253
161903,409,404,307
161919,411,435,315
161934,380,394,203
161950,401,406,266
161966,399,429,316
161982,436,407,256
161998,411,439,264
162014,464,422,331
162029,441,423,244
162045,479,467,369
162061,429,465,279
162077,474,502,429
162093,447,510,425
162108,468,496,325
162124,502,495,434
162140,466,431,404
162156,505,501,328
162172,487,498,442
162188,478,510,283
162203,496,500,286
162219,486,497,427
162235,475,470,283
162251,507,507,436
162267,508,500,283
162282,482,510,310
162298,492,512,455
162314,486,508,441
162330,495,505,263
162346,457,510,407
162362,407,435,301
162377,474,481,248
162393,437,473,346
162409,413,426,239
162425,440,450,373
162441,469,415,270
162457,442,424,243
162485,432,453,287
162495,392,407,283
162505,469,399,239
162520,412,400,247
162562,378,390,260
162572,382,405,286
162582,371,387,257
162592,374,396,247
162602,368,394,244
162670,390,404,272
162681,389,387,262
162691,363,406,247
162701,390,412,271
162711,394,386,238
162721,387,413,286
162731,403,418,285
162741,381,410,283
162751,374,405,296
162761,387,399,258
162773,377,403,256
162789,358,437,226
162804,411,425,261
162820,397,385,251
162836,407,405,215
162852,396,395,248
162868,390,396,216
162884,400,383,238
162899,390,377,309
162915,396,394,251
162931,400,405,239
162947,382,411,273
162963,460,398,227
162978,412,353,277
162994,414,386,256
163010,389,388,270
163026,440,376,280
163042,383,410,239
163058,375,401,267
163073,362,409,242
163089,383,383,284
163105,384,373,289
163121,373,397,254
163137,378,398,253
163152,383,389,218
163168,471,394,287
163184,390,408,287
163200,388,390,265
163216,406,386,272
163232,393,380,238
163247,389,395,211
163263,383,403,249
163279,358,402,248
163295,383,387,253
163311,369,395,256
163326,362,421,233
163342,423,421,251
163358,381,447,240
163374,385,418,250
163390,380,385,242
163406,377,393,239
163421,357,392,263
163437,379,416,247
163453,379,418,238
163469,380,424,252
163485,410,399,281
163500,417,398,215
163516,432,386,225
163532,376,409,263
163548,364,392,301
163564,401,386,239
163580,376,397,274
163595,367,381,281
163611,416,400,264
163627,364,370,278
163643,380,421,260
163659,374,386,296
163674,389,407,243
163690,447,391,267
163706,389,391,235
163722,398,419,253
163738,361,387,269
163754,390,377,236
163769,361,405,258
163785,373,392,287
163801,359,413,264
163817,376,404,232
163833,392,414,254
163848,379,413,242
163864,389,377,270
163880,395,404,223
163896,423,412,234
163912,401,410,263
163928,398,398,299
163943,433,373,273
163959,412,444,221
163975,430,405,250
163991,433,405,275
164007,393,387,199
164023,467,403,209
164038,380,405,283
164054,418,408,225
164070,393,427,250
164086,379,398,257
164102,423,398,249
164117,402,421,278
164133,399,418,247
164149,422,431,383
164165,397,429,254
164181,458,395,248
164197,435,403,298
164212,415,423,296
164228,386,402,245
164244,366,407,261
164260,358,406,252
164276,366,450,253
164291,392,405,225
164307,391,398,220
164323,393,412,242
164339,419,384,244
164355,404,409,307
164371,371,410,243
164386,407,464,205
164402,386,398,228
164418,411,401,304
164434,383,410,238
164450,412,415,288
164465,422,426,282
164481,441,406,242
164497,453,385,276
164513,431,400,270
164529,439,430,303
164545,381,427,219
164560,397,407,235
164576,396,398,317
164592,414,403,205
164608,393,413,227
164624,402,393,258
164639,455,408,240
164655,442,407,329
164671,484,375,272
164687,431,392,278
164703,420,395,319
164719,444,434,221
164734,419,404,262
164750,392,440,281
164766,382,420,293
164782,377,413,276
164798,382,397,247
164813,374,413,251
164829,383,409,254
164845,466,414,222
164861,407,389,237
164877,453,383,304
164893,455,404,238
164908,408,413,288
164924,455,440,278
164940,420,400,234
164956,406,427,275
164972,415,430,274
164987,387,417,272
165003,384,397,303
165019,465,403,240
165035,396,422,270
165051,457,416,279
165067,416,421,277
165082,406,417,273
165098,447,398,277
165114,408,424,277
165130,392,402,296
165146,393,417,314
165161,416,480,268
165177,453,455,287
165193,450,425,282
165209,459,489,265
165253,480,492,366
165263,452,494,264
165273,438,470,364
165283,472,499,275
165293,404,433,258
165304,433,445,349
165320,415,393,415
165335,403,461,285
165358,409,431,273
165368,425,442,346
165383,459,423,232
165399,452,413,301
165415,435,399,254
165430,459,411,256
165446,439,422,328
165518,442,425,358
165528,437,415,313
165538,406,409,250
165548,406,409,306
165558,418,437,226
165568,419,477,232
165578,403,423,280
165588,436,425,304
165598,427,414,255
165608,398,425,277
165620,394,408,317
165636,394,391,348
165652,415,415,279
165668,400,447,320
165683,430,416,264
165699,428,382,286
165715,428,381,301
165731,442,396,269
165747,419,403,228
165763,441,413,238
165778,405,402,245
165794,387,416,236
165810,397,388,256
165826,419,366,288
165842,401,401,237
165857,396,424,330
165873,393,427,289
165889,448,385,294
165905,416,404,249
165921,389,456,291
165937,408,391,255
165952,416,404,252
165968,391,424,226
165984,419,419,267
166000,392,413,236
166016,401,394,278
166031,430,396,282
166047,433,421,257
166063,447,408,288
166079,438,385,336
166095,465,402,247
166111,401,378,270
166126,380,432,207
166142,414,467,261
166158,391,384,266
166174,383,380,290
166190,415,425,293
166205,404,395,250
166221,427,413,291
166237,445,415,213
166253,393,392,245
166269,416,417,284
166285,440,392,259
166300,444,416,261
166316,430,428,284
166332,435,401,258
166348,431,395,263
166364,426,385,275
166379,408,402,245
166395,409,403,242
166411,379,399,296
166427,448,413,276
166443,465,407,263
166459,449,420,236
166474,414,399,257
166490,391,392,244
166506,392,380,256
166522,416,389,300
166538,396,393,239
166553,403,428,288
166569,418,431,294
166585,422,424,256
166601,450,421,215
166617,424,400,263
166633,426,411,249
166648,380,395,256
166664,374,395,251
166680,400,371,244
166696,391,382,209
166712,414,383,285
166727,434,384,277
166743,443,385,318
166759,407,395,291
166775,415,397,280
166791,406,388,263
166807,460,406,247
166822,418,413,309
166838,434,399,267
166854,414,393,245
166870,418,389,264
166886,405,400,295
166901,388,387,233
166917,387,387,295
166933,389,384,284
166949,391,428,219
166965,379,433,309
166981,441,406,264
166996,450,472,224
167012,432,427,304
167028,431,421,296
167044,442,400,290
167060,462,393,293
167075,434,420,297
167091,407,442,329
167107,431,450,348
167123,439,426,311
167139,418,465,262
167155,422,423,315
167170,468,467,241
167186,435,463,744
167202,463,447,331
167218,442,453,342
167234,462,477,264
167249,478,473,321
167265,473,493,303
167281,427,449,257
167297,445,425,248
167313,423,454,328
167329,453,390,313
167344,446,422,281
167360,389,426,275
167376,391,399,215
167392,399,413,278
167408,408,421,214
167423,393,361,248
167439,425,383,269
167455,394,396,249
167471,377,401,223
167487,394,415,247
167503,386,396,259
167518,380,401,209
167534,378,398,266
167550,362,392,258
167566,386,396,216
167582,406,428,289
167597,404,412,243
167613,385,399,211
167629,414,405,271
167645,409,386,277
167661,420,396,309
167677,416,387,257
167692,388,388,248
167708,387,383,216
167724,395,399,241
167740,391,380,262
167756,397,384,252
167771,373,368,229
167787,366,398,229
167803,374,377,231
167819,393,410,222
167835,375,403,192
167851,390,394,256
167866,357,423,201
167882,377,380,238
167898,400,404,260
167914,387,382,270
167930,408,375,231
167945,388,392,255
167961,379,390,228
167977,372,409,233
167993,367,396,271
168009,360,365,218
168025,356,406,221
168040,368,417,248
168056,381,388,292
168072,405,416,308
168088,402,427,231
168104,395,388,253
168119,434,379,276
168135,387,411,262
168151,360,395,258
168167,401,402,265
168183,376,395,234
168199,415,401,381
168303,431,404,229
168313,366,393,256
168323,386,384,252
168333,430,388,233
168343,400,385,292
168353,392,396,254
168363,391,404,221
168373,381,382,231
168383,377,378,217
168394,402,379,236
168422,384,387,232
168432,370,416,247
168442,372,397,230
168452,360,408,243
168462,371,380,256
168472,365,380,263
168482,358,374,274
168492,376,379,229
168502,400,388,252
168565,365,393,278
168575,364,379,222
168585,380,389,260
168595,420,407,266
168605,395,399,256
168617,387,389,215
168627,379,390,259
168637,386,386,240
168647,376,402,285
168657,356,404,256
168673,356,408,225
168689,374,405,207
168705,383,370,256
168721,394,401,264
168736,370,413,251
168752,359,374,224
168768,363,379,240
168784,362,405,275
168800,365,409,247
168816,383,394,202
168831,373,370,270
168847,381,405,220
168863,386,388,238
168879,375,373,248
168895,387,375,201
168910,348,397,232
168926,367,406,257
168942,361,400,235
168958,366,427,215
168974,372,395,246
168990,357,400,243
169005,362,405,250
169021,372,393,259
169037,361,385,250
169053,369,408,241
169069,361,398,256
169084,369,408,265
169100,372,387,231
169116,385,391,241
169132,386,421,231
169148,398,398,232
169164,406,381,254
169179,399,411,242
169195,431,402,761
169211,389,386,224
169227,393,374,236
169243,400,382,230
169258,377,389,249
169274,410,378,244
169290,384,431,234
169306,377,396,218
169322,370,391,256
169338,374,392,237
169353,381,434,237
169369,401,411,228
169385,375,400,269
169401,402,406,298
169417,395,405,271
169433,403,386,235
169448,371,396,282
169464,382,416,263
169480,410,375,271
169496,396,432,286
169512,434,391,313
169527,406,399,296
169543,475,438,281
169559,457,501,267
169575,445,390,239
169591,417,412,309
169607,447,414,267
169622,410,407,254
169638,457,428,232
169654,410,405,243
169670,437,440,378
169686,415,465,347
169701,438,474,243
169717,414,465,229
169733,431,457,318
169749,406,407,287
169765,412,421,313
169781,386,396,256
169796,402,397,247
169812,378,426,306
169828,413,400,283
169844,412,397,252
169860,414,395,222
169876,414,384,217
169891,437,411,240
169907,398,416,272
169923,386,396,227
169939,395,391,276
169955,458,382,230
169970,392,408,249
169986,445,395,252
170002,411,379,299
170018,415,402,235
170034,463,420,215
170050,395,394,285
170065,373,407,269
170081,394,390,238
170097,394,408,314
170113,416,415,278
170129,401,407,268
170144,366,396,226
170160,420,391,276
170176,391,384,246
170192,374,396,266
170208,389,404,239
170224,387,391,261
170239,380,422,256
170255,395,407,230
170271,384,397,251
170287,363,397,269
170303,400,399,191
170318,373,391,216
170334,366,401,256
170350,376,398,291
170366,365,400,251
170382,384,380,241
170398,454,407,211
170413,380,380,239
170429,372,405,241
170445,399,396,218
170461,388,404,241
170477,363,406,218
170492,367,380,229
170508,364,370,243
170524,370,389,262
170540,394,419,221
170556,356,385,270
170572,363,395,260
170587,379,388,244
170603,380,391,229
170619,407,394,223
170635,393,400,257
170651,389,404,239
170666,369,415,263
170682,377,375,265
170698,363,369,200
170714,358,384,237
170730,366,403,251
170746,363,384,243
170761,407,386,259
170777,385,389,260
170793,371,398,240
170809,409,380,219
170825,392,419,196
170840,386,391,266
170856,375,389,231
170872,372,391,227
170888,378,377,296
170904,370,399,239
170920,357,372,263
170935,385,392,262
170951,384,383,227
170967,377,388,258
170983,387,409,230
170999,377,385,279
171014,384,383,200
171030,391,400,227
171046,381,403,246
171062,404,340,254
171102,372,369,246
171112,384,376,221
171123,386,400,247
171134,382,373,247
171145,381,389,243
171181,386,382,227
171191,377,407,242
171203,400,378,233
171214,386,379,248
171224,371,399,254
171304,381,391,220
171314,367,435,245
171324,375,383,242
171334,377,398,242
171344,388,407,194
171354,421,409,254
171364,382,400,247
171375,389,403,249
171385,375,388,243
171395,373,403,233
171405,415,405,262
171415,394,399,253
171426,398,413,288
171442,455,429,278
171457,433,414,272
171473,426,416,217
171489,455,440,302
171505,423,410,328
171521,428,407,243
171537,389,397,300
171552,429,411,327
171568,423,415,290
171584,431,392,307
171600,421,416,290
171616,448,417,264
171631,445,435,280
171647,433,495,377
171663,459,436,348
171679,463,475,251
171695,455,469,356
171711,452,450,320
171726,483,490,311
171742,457,509,323
171758,473,483,309
171774,474,476,294
171790,469,467,243
171805,444,428,406
171821,471,459,286
171837,455,470,272
171853,455,494,430
171869,446,425,242
171885,412,385,355
171900,407,435,307
171916,426,447,295
171932,406,407,235
171948,395,402,314
171964,417,387,245
171979,400,408,272
171995,396,384,315
172011,374,439,237
172027,392,418,220
172043,385,422,249
172059,409,398,224
172074,447,396,229
172090,364,399,207
172106,374,434,263
172122,407,401,218
172138,404,402,272
172153,391,393,289
172169,398,398,255
172185,376,413,242
172201,372,389,257
172217,366,402,233
172233,367,376,238
172248,352,407,243
172264,361,395,261
172280,362,379,230
172296,387,407,200
172312,395,406,216
172327,369,383,225
172343,398,370,230
172359,380,392,232
172375,371,405,201
172391,379,405,222
172407,372,390,251
172422,387,401,221
172438,370,400,218
172454,384,422,253
172470,357,398,229
172486,369,406,217
172501,383,406,251
172517,357,410,261
172533,369,398,267
172549,378,396,211
172565,396,413,246
172581,377,416,259
172596,364,381,245
172612,374,370,209
172628,418,406,272
172644,377,402,260
172660,383,414,222
172675,371,420,253
172691,423,395,280
172707,400,392,275
172723,373,407,247
172739,365,411,280
172755,385,370,230
172770,378,404,221
172786,382,403,249
172802,389,386,273
172818,381,396,232
172834,370,378,234
172849,359,382,252
172865,369,376,228
172881,372,404,254
172897,383,398,270
172913,368,418,253
172929,352,445,260
172944,368,406,228
172960,416,386,259
172976,377,377,248
172992,379,387,217
173008,404,409,241
173023,397,411,264
173039,382,390,259
173055,392,386,257
173071,413,395,220
173087,391,388,227
173103,382,424,243
173118,378,390,220
173134,394,378,234
173150,378,403,278
173166,389,419,241
173182,420,393,287
173197,408,421,274
173213,391,407,308
173229,408,417,262
173245,409,397,254
173261,426,412,234
173277,460,429,243
173293,392,444,240
173308,437,415,287
173324,462,430,249
173340,440,433,268
173356,415,391,291
173371,399,405,251
173387,388,437,243
173403,402,414,239
173419,407,400,234
173435,403,413,245
173451,377,379,232
173466,420,410,244
173482,386,411,241
173498,372,394,302
173514,386,396,246
173530,430,395,245
173545,406,424,243
173561,421,409,326
173577,405,396,262
173593,416,384,259
173609,409,438,325
173625,416,406,282
173640,417,406,228
173656,367,434,262
173672,369,397,276
173688,400,400,248
173704,426,404,275
173719,473,425,287
173735,423,411,308
173751,388,414,254
173767,372,409,255
173783,379,416,283
173799,388,410,271
173814,370,425,241
173830,407,418,231
173846,431,418,241
173862,421,386,268
173878,404,387,289
173894,385,416,265
174190,371,407,252
174201,359,393,243
174211,375,394,235
174222,352,389,266
174232,378,415,254
174242,376,371,240
174252,374,409,230
174262,402,372,228
174272,386,386,239
174282,434,399,230
174292,385,409,221
174303,392,412,283
174313,442,420,295
174323,391,421,225
174333,372,379,330
174343,364,421,257
174353,405,395,240
174363,392,390,285
174373,366,398,257
174383,369,396,241
174393,397,361,252
174403,361,373,237
174413,375,365,267
174423,359,365,237
174433,371,389,218
174443,389,390,261
174453,388,394,229
174463,417,395,214
174473,378,402,231
174483,371,387,275
174493,386,392,289
174503,389,378,259
174513,376,402,256
174523,372,392,245
174533,377,383,216
174543,383,385,244
174877,
174887,6,413,247
174897,392,382,240
174907,412,393,264
174977,71,369,272
174987,389,228
174997,382,395,272
175007,377,396,236
175017,387,394,259
175027,418,408,236
175037,385,409,261
175048,399,368,259
175058,393,406,251
175070,386,396,257
175080,379,382,233
175091,364,406,245
175101,406,389,265
175112,383,406,260
175122,414,398,245
175132,368,385,216
175143,386,406,253
175153,362,389,273
175164,414,409,223
175175,375,378,259
175185,377,387,248
175195,391,392,281
175205,378,378,232
175215,368,395,240
175225,378,396,257
175235,397,425,202
175245,389,398,225
175255,406,379,224
175265,394,424,247
175275,356,391,236
175285,363,389,256
175295,354,385,247
175305,388,393,250
175315,400,420,223
175325,417,409,213
175335,384,375,262
175345,394,402,243
175355,408,392,237
175365,393,412,230
175375,401,399,271
175385,375,389,229
175395,370,390,251
175405,385,389,243
175415,371,378,256
175425,396,381,244
175435,398,410,223
175445,380,377,242
175455,396,419,236
175465,377,427,262
175475,375,432,255
175485,366,424,240
175495,478,395,248
175505,397,433,278
175515,382,396,308
175525,424,395,272
175539,424,401,249
175554,424,405,274
175570,402,390,243
175586,401,406,276
175602,401,413,217
175618,395,385,249
175634,396,388,265
175649,373,385,273
175665,410,381,254
175681,379,378,251
175697,376,383,210
175713,420,362,268
175728,393,390,243
175744,389,419,265
175760,381,363,249
175776,383,425,253
175792,377,399,249
175808,382,392,254
175823,405,382,230
175839,373,400,248
175855,408,397,266
175871,384,388,281
175887,397,424,237
175902,375,401,247
175918,381,383,240
175934,375,383,244
175950,374,397,244
175966,409,422,209
175982,376,374,200
175997,452,390,256
176013,374,390,245
176029,391,372,208
176045,399,403,213
176061,380,409,226
176077,395,373,216
176092,391,387,281
176108,376,456,228
176124,400,379,239
176140,407,413,230
176156,403,402,266
176171,417,402,243
176187,374,400,679
176203,354,423,220
176219,370,405,291
176235,381,391,246
176251,360,401,235
176266,403,373,231
176282,383,395,231
176298,383,367,308
176314,429,389,280
176330,394,380,244
176345,375,368,240
176361,384,397,273
176377,432,436,242
176393,418,394,230
176409,400,408,257
176425,413,386,278
176440,381,397,239
176456,376,410,219
176472,361,421,266
176488,382,397,262
176504,393,399,218
176519,388,387,221
176535,354,384,250
176551,399,390,240
176567,452,407,247
176583,375,386,271
176599,383,351,288
176614,433,393,240
176630,422,407,289
176646,388,413,233
176662,377,379,203
176678,382,401,231
176693,368,400,254
176709,374,377,278
176725,373,397,267
176741,394,403,240
176757,423,420,254
176773,377,393,278
176788,383,386,256
176804,380,399,247
176820,400,397,263
176836,401,412,253
176852,391,391,252
176867,377,408,278
176883,403,413,231
176899,401,402,226
176915,384,404,259
176931,397,397,239
176947,377,383,260
176962,392,388,285
176978,373,371,248
176994,383,402,232
177010,367,386,232
177026,403,382,248
177041,386,426,232
177057,392,394,235
177073,399,404,234
177089,386,383,269
177105,382,393,237
177121,411,423,241
177136,388,413,280
177152,411,382,282
177168,395,392,247
177184,393,402,256
177200,374,404,238
177215,383,385,276
177231,381,405,257
177247,376,411,268
177263,371,384,241
177279,398,400,268
177295,389,379,250
177310,395,442,238
177326,389,398,244
177342,381,407,272
177358,454,434,236
177374,410,390,262
177389,422,396,260
177405,389,403,253
177421,374,394,241
177437,409,408,236
177453,398,380,283
177469,396,391,279
177484,373,377,286
177500,360,402,264
177516,391,397,250
177560,408,368,254
177570,463,415,299
177580,388,394,253
177590,370,401,223
177600,457,391,240
177611,398,398,250
177627,474,396,208
177643,394,425,268
177658,382,404,237
177674,375,364,271
177725,422,397,228
177735,405,378,240
177745,413,406,229
177755,469,393,245
177817,382,364,296
177827,388,400,254
177837,382,405,264
177847,390,418,225
177857,389,399,259
177867,371,396,267
177877,373,393,237
177887,386,399,254
177897,386,390,250
177907,393,414,251
177917,370,396,237
177927,365,385,263
177943,377,390,265
177959,369,390,252
177975,378,384,210
177991,387,388,249
178006,402,409,220
178022,389,408,284
178038,378,394,248
178054,388,371,254
178070,372,388,209
178085,379,388,247
178101,385,404,267
178117,371,409,234
178133,377,388,748
178149,383,385,248
178165,364,403,257
178180,360,419,223
178196,400,418,225
178212,362,416,239
178228,369,396,277
178244,391,372,239
178259,378,382,257
178275,372,414,261
178291,404,384,253
178307,447,407,249
178323,390,369,230
178339,399,395,242
178354,392,374,221
178370,370,390,264
178386,385,375,242
178402,378,383,233
178418,387,406,213
178433,391,390,236
178449,418,380,239
178465,401,383,228
178481,367,372,215
178497,369,407,243
178513,402,367,231
178528,369,400,239
178544,374,429,261
178560,383,398,246
178576,367,374,248
178592,368,427,284
178607,386,394,219
178623,372,406,280
178639,377,400,292
178655,381,408,278
178671,425,416,218
178687,418,383,206
178702,385,395,262
178718,394,411,233
178734,460,429,280
178750,467,402,228
178766,425,381,243
178781,426,423,252
178797,424,426,301
178813,460,440,286
178829,459,440,299
178845,471,452,272
178861,474,410,345
178876,440,462,257
178892,472,429,255
178908,443,492,287
178924,456,510,374
178940,456,478,327
178955,463,508,274
178971,449,458,385
178987,472,503,441
179003,450,503,317
179019,464,497,320
179035,481,509,434
179050,488,480,285
179066,458,473,275
179082,466,500,335
179098,443,449,338
179114,481,474,439
179129,484,484,477
179145,471,509,309
179161,490,499,629
179177,485,490,330
179193,496,497,318
179209,505,489,290
179224,461,509,406
179240,496,491,466
179256,481,475,373
179272,486,493,350
179288,485,503,284
179304,488,491,398
179319,495,508,315
179335,470,486,346
179351,449,507,342
179367,471,437,388
179383,452,488,404
179398,474,508,301
179414,475,512,379
179430,453,454,358
179446,438,492,371
179462,432,501,365
179478,439,456,263
179493,461,468,238
179509,471,495,230
179525,424,453,231
179541,476,434,320
179557,447,424,292
179572,459,443,250
179588,450,407,230
179604,464,436,249
179620,466,398,337
179636,421,423,224
179652,399,415,290
179667,409,399,297
179683,402,422,326
179699,421,409,227
179715,417,396,312
179731,437,428,269
179746,377,416,298
179762,425,418,225
179778,388,394,220
179794,388,408,291
179810,397,420,247
179826,400,433,285
179841,411,439,262
179857,425,394,245
179873,406,428,256
179889,430,411,250
179905,453,409,260
179920,468,479,282
179936,420,402,253
179952,422,412,263
179968,417,389,304
179984,404,404,319
180000,393,391,252
180015,394,382,247
180031,396,383,315
180047,367,394,222
180063,387,441,246
180079,370,429,246
180094,391,393,293
180110,406,433,275
180126,395,395,255
180142,388,390,213
180158,395,379,315
180174,416,365,307
180189,397,381,704
180205,351,430,290
180221,384,398,272
180237,386,401,230
180253,395,394,213
180269,384,406,260
180284,371,385,252
180300,422,422,237
180316,381,419,263
180332,380,410,266
180348,382,384,259
180363,394,419,229
180379,373,407,228
180395,392,383,249
180411,382,395,269
180427,378,399,282
180443,371,405,254
180458,381,421,280
180474,391,375,260
180490,381,379,241
180532,389,361,245
180542,369,385,252
180552,369,395,293
180562,375,372,293
180572,372,386,238
180585,369,381,198
180601,380,400,260
180617,379,390,258
180632,368,383,268
180661,386,398,242
180671,402,399,239
180681,369,402,251
180696,438,420,264
180711,403,377,240
180727,379,379,234
180743,405,391,244
180759,379,421,241
180775,417,400,248
180839,382,405,229
180850,379,377,265
180860,379,384,253
180870,364,398,272
180880,391,416,300
180890,367,398,232
180900,360,397,243
180910,369,390,224
180920,353,380,231
180933,362,392,262
180949,374,401,248
180965,397,383,279
180980,378,418,249
180996,379,419,264
181012,371,409,228
181028,383,396,243
181044,387,405,284
181059,389,408,291
181075,401,415,270
181091,386,406,264
181107,374,396,214
181123,374,380,238
181139,373,403,265
181154,362,393,278
181170,386,402,240
181186,366,413,217
181202,388,388,244
181218,454,396,257
181233,400,372,267
181249,379,390,277
181265,396,389,281
181281,432,409,265
181297,383,377,215
181313,382,416,229
181328,379,410,244
181344,378,414,246
181360,400,381,216
181376,391,376,214
181392,395,379,218
181407,442,392,252
181423,392,405,270
181439,391,359,252
181455,379,404,224
181471,409,480,266
181487,424,448,268
181502,464,405,256
181518,439,400,285
181534,447,446,266
181550,488,437,335
181566,419,473,341
181581,470,503,253
181597,440,447,264
181613,457,418,350
181629,486,453,377
181645,481,473,353
181661,497,484,434
181676,498,485,352
181692,501,483,345
181708,491,500,374
181724,502,511,377
181740,510,499,434
181755,510,510,441
181771,509,510,344
181787,507,510,349
181803,501,511,431
181819,501,512,428
181835,501,511,382
181850,497,512,355
181866,509,505,415
181882,484,511,463
181898,495,504,479
181914,505,501,388
181929,492,508,422
181945,506,510,487
181961,486,512,448
181977,507,511,462
181993,510,504,386
182009,506,504,410
182024,501,509,467
182040,509,511,484
182056,511,498,395
182072,511,509,408
182088,508,502,362
182103,502,505,457
182119,493,510,457
182135,508,511,457
182151,505,512,356
182167,506,511,371
182183,489,510,347
182198,466,457,351
182214,492,505,358
182230,495,500,389
182246,463,492,404
182262,463,501,324
182277,476,463,274
182293,443,455,287
182309,470,471,317
182325,431,449,292
182341,400,407,313
182357,425,436,235
182372,402,402,280
182388,464,414,295
182404,398,412,281
182420,384,438,223
182436,379,421,252
182451,380,387,279
182467,397,411,283
182483,406,397,270
182499,401,383,276
182515,384,382,287
182531,383,402,289
182546,374,373,247
182562,373,386,232
182578,397,394,239
182594,400,374,231
182610,364,381,271
182625,406,374,250
182641,426,372,277
182657,392,409,254
182673,420,399,261
182689,389,406,294
182705,380,411,253
182720,409,389,234
182736,377,390,256
182752,372,391,181
182768,373,366,233
182784,391,384,224
182799,372,405,261
182815,380,401,263
182831,391,402,262
182847,400,388,261
182863,368,375,232
182879,356,369,273
182894,367,385,250
182910,359,387,231
182926,372,393,273
182942,386,395,228
182958,399,408,204
182973,402,422,198
182989,399,397,271
183005,377,406,271
183021,409,405,253
183037,390,409,235
183053,389,395,233
183068,470,400,238
183084,403,409,253
183100,414,401,207
183116,412,384,211
183132,367,364,254
183147,392,398,234
183163,403,375,228
183179,361,373,222
183195,352,381,235
183211,370,380,197
183227,391,385,233
183242,364,382,243
183258,361,376,250
183274,397,400,252
183290,427,371,218
183306,388,373,257
183321,367,400,270
183337,380,382,231
183377,373,400,258
183387,366,399,247
183397,367,384,285
183407,365,364,263
183417,369,426,206
183432,367,399,223
183448,373,399,234
183553,380,387,267
183563,362,403,284
183573,368,399,237
183583,351,414,267
183593,429,367,259
183603,389,351,230
183613,377,399,233
183623,373,399,234
183633,420,390,221
183643,376,408,235
183653,386,383,265
183768,396,424,259
183778,361,379,246
183788,367,384,255
183799,372,386,247
183809,377,386,250
183819,398,412,279
183829,370,432,242
183839,378,399,286
183850,382,411,258
183861,385,385,297
183871,367,411,246
183881,400,398,240
183891,390,394,240
183901,392,403,291
183911,440,390,273
183921,418,403,273
183931,406,436,262
183941,400,416,294
183951,402,452,259
183961,423,406,226
183971,435,453,289
183981,428,440,320
183991,429,472,235
184002,447,506,244
184018,455,423,351
184033,474,447,446
184049,458,503,384
184065,455,503,309
184081,462,503,366
184097,455,511,328
184112,485,510,325
184128,452,471,628
184144,477,507,414
184160,468,508,312
184176,493,510,301
184192,492,495,276
184207,493,508,341
184223,478,510,332
184239,481,489,439
184255,486,508,492
184271,472,496,325
184286,500,510,333
184302,489,509,278
184318,498,510,309
184334,498,495,460
184350,482,477,298
184366,489,507,309
184381,490,511,342
184397,473,508,374
184413,470,504,287
184429,491,489,281
184445,496,486,368
184460,465,416,277
184476,465,412,344
184492,405,406,322
184508,455,478,253
184524,443,432,265
184540,437,420,286
184555,420,455,229
184571,409,409,287
184587,421,415,267
184603,406,446,319
184619,405,411,273
184634,438,415,268
184650,456,416,257
184666,412,400,264
184682,387,387,283
184698,406,441,225
184714,378,400,239
184729,368,400,239
184745,363,401,293
184761,379,388,239
184777,387,391,229
184793,382,393,248
184808,368,387,242
184824,390,411,198
184840,423,402,217
184856,405,390,249
184872,419,389,242
184888,381,393,217
184903,362,408,290
184919,380,413,276
184935,413,400,270
184951,374,389,262
184967,408,415,231
184982,368,383,218
184998,390,406,259
185014,393,424,259
185030,415,383,242
185046,387,392,199
185062,368,357,236
185077,371,367,268
185093,372,366,244
185109,360,405,226
185125,369,382,295
185141,391,384,269
185156,370,406,251
185172,366,400,265
185188,360,398,244
185204,367,402,208
185220,420,370,224
185236,390,369,235
185251,391,394,224
185267,375,405,205
185283,394,391,246
185299,373,388,251
185315,378,430,237
185330,377,422,254
185346,374,375,246
185362,362,390,238
185378,394,386,241
185394,381,384,287
185410,392,385,281
185425,417,390,274
185441,372,379,246
185457,375,428,223
185473,363,398,231
185489,368,398,243
185504,360,400,239
185520,371,412,242
185536,393,388,276
185552,387,384,241
185568,363,371,248
185584,385,412,261
185599,389,427,224
185615,370,386,288
185631,389,404,275
185647,376,394,313
185663,385,396,245
185679,377,391,265
185694,369,379,250
185710,374,394,233
185726,362,374,246
185742,377,404,247
185758,369,398,235
185773,364,381,262
185789,390,365,229
185805,365,382,252
185821,381,368,259
185837,394,393,233
185853,380,394,214
185868,383,361,279
185884,388,399,256
185900,396,382,251
185916,387,403,205
185932,413,415,240
185947,417,400,248
185963,430,448,280
185979,401,430,307
185995,420,433,241
186011,453,418,239
186027,430,425,274
186042,462,400,293
186058,484,458,310
186074,468,434,294
186090,470,464,244
186106,469,496,368
186121,472,457,431
186137,481,465,330
186153,467,506,294
186169,462,498,435
186185,457,503,275
186201,476,499,385
186216,498,506,392
186232,475,506,382
186248,482,490,288
186264,496,496,291
186280,482,505,329
186295,505,511,332
186311,490,497,455
186349,508,508,413
186359,490,511,329
186369,497,487,449
186379,509,487,489
186390,508,508,404
186406,482,496,438
186442,471,476,318
186452,481,507,341
186462,489,501,354
186472,472,499,325
186485,492,510,289
186501,509,511,445
186517,500,510,367
186561,496,511,456
186571,479,488,455
186581,504,504,320
186591,474,509,300
186601,482,511,325
186612,482,478,336
186628,473,502,443
186644,478,467,406
186659,482,505,380
186675,471,511,391
186691,436,442,319
186707,449,463,314
186723,396,450,270
186738,446,437,258
186754,446,458,275
186770,420,435,249
186786,401,414,208
186802,449,395,276
186818,393,418,289
186833,407,371,296
186849,400,404,276
186865,396,401,221
186881,399,404,270
186897,404,401,243
186912,395,394,304
186928,375,405,254
186944,387,395,233
186960,383,383,253
186976,375,373,272
186992,381,381,252
187007,381,396,232
187023,395,384,247
187039,375,395,264
187055,382,425,252
187071,386,390,238
187086,374,400,245
187102,386,386,254
187118,383,404,278
187134,419,404,273
187150,395,380,223
187166,412,389,256
187181,378,394,246
187197,381,408,256
187213,378,393,265
187229,386,381,232
187245,377,371,264
187260,365,386,261
187276,385,378,252
187292,376,398,261
187308,381,394,267
187324,377,398,253
187340,367,416,259
187355,380,399,260
187371,362,396,257
187387,381,374,275
187403,368,399,265
187419,371,378,249
187434,361,360,275
187450,365,362,265
187466,369,395,234
187482,366,378,232
187498,377,366,263
187514,371,390,244
187529,381,407,228
187545,389,414,243
187561,379,421,262
187577,347,389,279
187593,372,384,242
187608,361,394,270
187624,369,388,260
187640,366,391,247
187656,383,389,277
187672,384,388,281
187688,357,410,281
187703,392,357,250
187719,386,421,254
187735,385,394,252
187751,400,375,285
187767,368,375,268
187782,412,377,276
187798,386,381,257
187814,426,383,278
187830,385,402,275
187846,387,392,289
187862,366,382,276
187877,382,386,286
187893,361,420,276
187909,405,412,275
187925,408,415,328
187941,408,473,354
187956,440,424,326
187972,488,474,400
187988,488,500,345
188004,491,510,447
188020,495,511,451
188036,499,512,413
188051,497,502,338
188067,509,499,469
188083,510,500,491
188099,499,504,447
188115,505,509,616
188130,508,510,396
188146,505,511,456
188162,497,511,476
188178,497,496,378
188194,508,508,398
188210,499,506,373
188225,509,501,443
188241,508,509,454
188257,497,494,478
188273,509,509,411
188289,502,510,409
188304,511,490,404
188320,508,506,437
188336,497,488,441
188352,504,508,375
188368,489,510,359
188384,494,507,405
188399,490,509,481
188415,488,497,353
188431,501,508,392
188447,506,481,333
188463,503,508,451
188478,479,503,427
188494,485,494,418
188510,442,461,403
188526,442,446,331
188542,423,415,307
188558,424,438,322
188573,416,424,301
188589,424,395,315
188605,368,389,255
188621,418,400,250
188637,399,410,271
188653,389,393,278
188668,397,381,298
188684,382,396,270
188700,378,401,239
188716,376,383,283
188732,391,402,280
188747,394,404,256
188763,396,393,268
188779,391,392,286
188795,367,404,288
188811,397,388,236
188826,374,373,266
188842,385,366,286
188858,365,377,269
188874,369,392,262
188890,407,370,246
188906,360,385,271
188921,356,368,257
188937,355,371,280
188953,386,378,260
188969,388,374,257
188985,384,416,229
189000,405,406,243
189016,401,395,250
189032,375,387,247
189048,355,404,270
189064,371,403,242
189080,370,406,257
189095,394,427,344
189154,379,392,228
189164,377,393,280
189174,383,395,279
189184,414,420,265
189194,373,365,235
189205,371,391,248
189215,376,400,270
189226,395,396,282
189238,379,431,265
189270,377,420,246
189281,385,408,245
189291,368,405,255
189301,364,383,246
189317,361,388,268
189373,380,369,271
189383,371,387,269
189393,369,387,237
189403,366,421,274
189413,381,411,251
189423,373,403,291
189433,398,382,274
189444,364,400,225
189459,415,375,297
189475,386,395,241
189491,377,390,241
189507,389,409,243
189522,385,412,269
189538,386,401,283
189554,386,395,306
189570,378,386,260
189586,394,396,286
189602,393,386,271
189617,363,406,261
189633,388,385,256
189649,410,377,266
189665,388,392,244
189681,385,387,297
189696,395,423,252
189712,408,394,266
189728,384,405,254
189744,373,390,275
189760,387,390,272
189776,380,388,253
189791,398,407,270
189807,405,420,264
189823,391,405,315
189839,431,397,288
189855,420,419,322
189871,429,391,320
189886,409,386,280
189902,418,409,296
189918,400,417,280
189934,400,465,310
189950,439,446,248
189965,416,426,363
189981,458,501,434
189997,487,473,340
190013,486,506,383
190029,486,511,336
190045,499,512,402
190060,501,510,460
190076,490,510,380
190092,505,510,427
190108,502,493,315
190124,500,481,316
190139,507,508,349
190155,506,502,396
190171,510,509,419
190187,493,510,328
190203,501,511,353
190219,497,511,296
190234,476,513,309
190250,487,501,347
190266,492,507,445
190282,471,474,383
190298,487,492,423
190313,492,509,361
190329,478,482,308
190345,463,488,383
190361,484,482,416
190377,484,508,456
190393,455,455,351
190408,484,495,326
190424,474,475,275
190440,472,487,314
190456,460,491,311
190472,460,477,412
190487,434,422,316
190503,419,434,277
190519,455,419,244
190535,437,423,260
190551,439,412,253
190567,402,434,304
190582,400,433,336
190598,423,391,307
190614,402,415,269
190630,419,379,308
190646,408,400,332
190661,392,384,305
190677,386,418,275
190693,381,398,323
190709,386,410,255
190725,436,393,261
190741,422,413,286
190756,388,406,261
190772,397,387,270
190788,412,402,259
190804,382,381,247
190820,386,381,252
190835,378,386,275
190851,361,391,286
190867,367,388,269
190883,392,385,236
190899,375,388,291
190915,382,388,279
190930,380,380,302
190946,381,421,275
190962,384,386,243
190978,440,405,258
190994,390,416,256
191010,391,389,255
191025,393,402,250
191041,401,422,265
191057,373,395,272
191073,374,373,272
191089,369,391,250
191104,380,399,285
191120,392,438,275
191136,389,383,248
191152,403,385,270
191168,384,390,245
191183,397,399,237
191199,440,383,238
191215,396,389,239
191231,372,368,252
191247,407,396,231
191263,365,349,232
191278,395,365,234
191294,374,377,287
191310,388,376,262
191326,406,388,249
191342,402,422,244
191358,371,403,241
191373,385,384,226
191389,381,413,288
191405,390,404,278
191421,416,398,287
191437,397,380,229
191452,383,401,217
191468,372,381,238
191484,373,364,268
191500,385,412,246
191516,414,386,259
191532,378,415,275
191547,362,389,265
191563,386,379,253
191579,393,390,219
191595,366,394,242
191611,363,401,259
191626,384,356,233
191642,380,389,276
191658,400,372,268
191674,395,384,266
191690,409,376,275
191706,386,382,247
191721,380,377,259
191737,370,382,263
191753,377,414,261
191769,391,389,246
191785,406,380,244
191801,410,383,278
191816,386,404,275
191832,378,393,259
191848,377,407,291
191864,430,414,283
191880,402,390,264
191895,434,439,294
191911,393,397,256
191927,421,392,262
191943,378,409,261
191959,362,378,284
192025,382,388,241
192035,366,386,245
192045,365,382,278
192055,381,377,268
192065,417,381,213
192103,400,392,281
192114,403,432,298
192125,408,425,273
192135,411,401,331
192145,398,394,262
192156,401,385,296
192166,391,425,288
192176,390,389,300
192187,395,426,279
192198,396,427,299
192322,421,418,289
192332,400,381,289
192342,425,416,243
192352,436,434,323
192363,413,422,271
192373,406,388,285
192383,412,452,322
192393,417,403,265
192404,442,432,335
192414,398,426,275
192424,426,410,296
192434,435,435,370
192444,446,426,331
192454,434,475,364
192464,438,470,269
192474,431,419,285
192484,429,462,301
192494,471,460,274
192504,454,473,305
192514,447,507,317
192528,435,437,274
192544,432,411,336
192560,475,441,315
192576,468,437,357
192591,447,435,314
192607,438,432,237
192623,429,435,260
192639,427,439,218
192655,437,476,266
192671,408,416,286
192686,447,435,347
192702,464,409,301
192718,447,407,307
192734,408,437,377
192750,406,407,260
192766,431,429,279
192781,435,407,268
192797,444,412,246
192813,407,391,275
192829,455,437,305
192845,410,397,270
192860,429,462,317
192876,411,408,272
192892,405,365,301
192908,394,426,308
192924,402,382,303
192940,459,390,288
192955,399,385,276
192971,406,388,279
192987,411,407,291
193003,406,406,233
193019,398,383,264
193034,463,418,258
193050,410,380,269
193066,379,351,268
193082,378,382,280
193098,389,421,270
193114,385,423,261
193129,412,392,237
193145,369,394,256
193161,386,413,278
193177,403,364,266
193193,392,390,261
193209,386,378,252
193224,391,408,266
193240,367,401,253
193256,402,394,249
193272,409,387,263
193288,384,378,269
193303,362,375,272
193319,373,407,247
193335,403,374,241
193351,391,399,242
193367,379,422,257
193383,399,409,236
193398,411,378,245
193414,387,383,247
193430,372,403,307
193446,369,416,252
193462,377,404,241
193477,382,398,238
193493,412,397,281
193509,395,415,270
193525,377,402,256
193541,368,392,272
193557,406,379,258
193572,387,409,251
193588,364,390,245
193604,379,393,277
193620,375,376,261
193636,364,385,280
193652,381,390,266
193667,374,404,247
193683,380,375,309
193699,391,388,274
193715,383,398,280
193731,386,410,305
193746,402,409,250
193762,386,370,257
193778,384,397,249
193794,390,391,280
193810,392,428,276
193826,390,393,278
193841,390,397,243
193857,378,396,267
193873,369,393,226
193889,361,418,288
193905,377,402,288
193920,375,400,277
193936,373,381,266
193952,375,412,233
193968,381,420,262
193984,402,398,291
194000,361,402,280
194015,377,359,256
194031,368,372,242
194047,394,377,257
194063,382,393,276
194079,369,404,239
194094,378,419,244
194110,414,397,271
194126,378,402,304
194142,388,373,255
194158,361,389,248
194174,388,393,263
194189,388,396,336
194205,389,382,233
194221,439,390,251
194237,412,380,279
194253,394,387,293
194268,366,395,261
194284,371,392,231
194300,445,408,282
194316,388,404,262
194332,383,403,254
194348,386,380,251
194363,380,390,260
194379,390,397,231
194395,385,397,263
194411,378,381,244
194427,429,407,239
194442,409,380,261
194458,405,405,239
194474,396,404,237
194490,459,397,244
194506,431,380,276
194522,428,420,272
194537,440,384,254
194553,409,439,225
194569,400,408,234
194585,418,373,332
194601,405,384,315
194616,416,385,265
194632,455,413,271
194648,416,439,273
194664,417,421,257
194680,384,417,303
194696,421,421,280
194711,408,421,299
194727,397,379,265
194743,453,394,281
194759,425,382,326
194775,380,384,311
194790,408,442,264
194806,394,422,242
194822,389,381,286
194838,436,395,297
194868,436,400,262
194878,397,376,290
194888,408,398,236
194901,416,422,291
194917,407,410,275
194933,422,412,311
194965,436,447,316
194975,405,426,264
194985,389,379,249
194996,389,372,279
195012,413,395,280
195028,424,395,263
195044,379,421,246
195059,386,387,236
195075,407,447,268
195091,398,411,294
195107,411,378,285
195123,421,429,247
195169,386,424,282
195180,399,381,257
195190,392,383,231
195200,378,368,257
195211,393,388,270
195221,404,411,259
195233,372,434,233
195249,386,396,282
195265,393,380,306
195281,382,402,241
195297,388,412,256
195312,403,404,275
195328,388,411,272
195344,371,398,273
195360,377,381,231
195376,379,379,243
195392,397,380,242
195407,379,417,232
195423,384,391,253
195439,383,408,250
195455,376,393,260
195471,387,409,221
195486,367,415,241
195502,377,389,277
195518,410,412,254
195534,462,419,299
195550,386,395,242
195566,407,397,250
195581,412,386,298
195597,404,396,272
195613,412,404,264
195629,404,385,287
195645,428,367,309
195661,391,422,284
195676,407,433,269
195692,392,395,307
195708,392,389,293
195724,437,376,262
195740,441,400,229
195755,394,386,235
195771,418,392,280
195787,423,383,323
195803,402,423,246
195819,403,442,283
195835,414,409,251
195850,401,390,274
195866,399,403,284
195882,400,423,258
195898,390,399,238
195914,410,372,275
195929,405,393,305
195945,411,385,299
195961,403,393,278
195977,396,398,264
195993,379,403,268
196009,383,402,276
196024,410,400,248
196040,397,402,304
196056,447,401,290
196072,412,420,186
196088,379,407,214
196103,373,369,213
196119,407,383,804
196135,417,378,211
196151,369,370,227
196167,404,389,207
196183,401,376,314
196198,413,358,271
196214,381,420,299
196230,377,389,254
196246,398,372,261
196262,391,388,249
196277,419,432,204
196293,411,392,226
196309,400,400,216
196325,420,414,266
196341,414,456,257
196357,437,393,289
196372,458,453,303
196388,460,380,340
196404,454,465,302
196420,486,501,278
196436,479,501,322
196451,454,510,368
196467,490,512,328
196483,501,466,375
196499,506,506,331
196515,509,490,367
196531,500,495,373
196546,504,484,423
196562,510,508,407
196578,505,511,461
196594,510,509,425
196610,510,507,484
196625,504,511,496
196641,511,448,459
196657,512,501,369
196673,510,508,406
196689,512,510,412
196705,500,510,486
196720,510,511,477
196736,500,507,472
196752,496,506,455
196768,504,510,425
196784,510,510,441
196799,511,511,414
196815,499,512,475
196831,500,493,475
196847,510,509,481
196863,506,511,470
196879,501,511,435
196894,511,499,445
196910,502,496,395
196926,507,509,443
196942,512,509,494
196958,513,511,466
196973,508,512,487
196989,509,512,435
197005,502,512,397
197021,509,493,377
197037,503,508,408
197053,500,511,438
197068,494,508,466
197084,507,508,437
197100,508,510,437
197116,505,502,402
197132,494,500,426
197147,494,509,299
197163,490,451,265
197179,449,445,323
197195,470,455,327
197211,454,466,300
197227,436,501,323
197242,450,489,291
197258,460,500,345
197274,443,454,354
197290,424,467,330
197306,448,463,340
197321,468,441,297
197337,443,451,284
197353,418,388,265
197369,426,397,293
197385,399,397,334
197401,428,426,294
197416,439,453,318
197432,392,425,312
197448,417,385,259
197464,417,422,308
197480,417,430,292
197495,449,450,292
197511,403,423,289
197527,416,402,291
197543,401,447,283
197559,406,409,261
197575,412,406,306
197590,455,398,282
197606,477,414,272
197622,431,396,310
197638,424,411,324
197654,436,431,309
197669,475,438,307
197685,396,406,307
197701,418,442,267
197717,441,409,304
197733,401,373,273
197749,399,376,281
197764,409,388,318
197780,416,417,310
197796,447,412,317
197812,398,435,258
197828,421,430,249
197843,401,435,266
197892,414,383,239
197903,416,434,277
197913,437,418,305
197923,410,405,323
197952,421,413,314
197963,415,387,277
197973,389,442,278
197984,418,427,255
197994,423,440,255
198044,415,397,290
198054,415,397,305
198064,436,390,314
198075,473,407,307
198086,426,403,306
198097,397,372,297
198107,394,385,446
198118,432,391,265
198128,409,392,264
198144,407,385,249
198160,409,401,278
198176,398,407,310
198191,416,405,273
198207,429,378,319
198223,414,386,438
198239,387,425,262
198255,399,404,284
198271,436,381,253
198286,453,405,304
198302,436,398,329
198318,408,425,246
198334,404,400,288
198350,430,409,312
198366,457,398,282
198381,403,400,296
198397,419,429,294
198413,423,428,249
198429,407,387,260
198445,417,398,276
198460,421,406,261
198476,460,395,287
198492,429,396,311
198508,408,371,328
198524,418,389,291
198539,406,410,226
198555,408,450,314
198571,443,439,272
198587,431,422,295
198603,416,397,329
198619,464,396,288
198634,428,411,309
198650,412,401,340
198666,423,443,258
198682,431,422,287
198698,453,436,297
198713,429,408,304
198729,446,443,319
198745,425,409,322
198761,447,482,290
198777,466,442,304
198793,469,489,266
198808,461,438,298
198824,479,474,313
198840,490,498,366
198856,482,503,428
198872,483,511,387
198887,488,512,408
198903,474,497,287
198919,487,509,344
198935,504,510,368
198951,512,481,436
198967,495,470,432
198982,500,493,377
198998,491,510,374
199014,486,508,383
199030,498,467,461
199046,502,451,468
199061,506,504,474
199077,506,505,391
199093,505,511,388
199109,510,510,382
199125,510,510,414
199141,512,491,458
199156,512,509,378
199172,509,510,408
199188,495,510,485
199204,497,511,488
199220,509,512,466
199235,502,504,420
199251,505,510,461
199267,507,468,390
199283,511,505,334
199299,511,509,381
199315,511,510,380
199330,505,511,451
199346,500,512,457
199362,504,512,483
199378,509,512,443
199394,497,512,447
199410,501,506,340
199425,505,511,469
199441,497,482,379
199457,506,487,403
199473,497,509,324
199489,509,505,347
199504,500,477,461
199520,502,500,358
199536,501,491,315
199552,505,479,346
199568,491,499,314
199584,485,509,430
199599,476,488,405
199615,470,505,272
199631,456,498,359
199647,473,500,333
199663,492,478,433
199678,450,464,386
199694,434,465,411
199710,422,415,275
199726,433,423,289
199742,467,473,288
199758,446,456,320
199773,432,450,369
199789,454,471,289
199805,459,431,265
199821,403,429,240
199837,421,428,282
199852,461,419,288
199868,436,421,336
199884,476,447,282
199900,426,427,260
199916,470,422,274
199932,422,412,270
199947,416,392,386
199963,433,484,321
199979,408,457,232
199995,415,441,331
200011,426,439,348
200026,420,500,285
200042,403,426,318
200058,401,465,318
200074,424,415,328
200090,436,393,243
200106,465,399,257
200121,459,385,276
200137,427,390,267
200153,459,400,769
200169,414,369,409
200185,453,441,325
200200,381,385,273
200216,397,386,258
200232,396,401,259
200248,432,400,273
200264,414,440,275
200280,417,415,283
200295,428,489,323
200311,416,419,309
200327,420,420,258
200343,434,415,295
200359,428,468,257
200374,421,419,326
200390,399,404,260
200406,416,404,235
200422,474,435,291
200438,424,417,232
200454,447,414,256
200469,411,390,258
200485,393,431,300
200501,392,406,258
200517,410,417,235
200533,419,407,229
200548,420,395,251
200564,409,417,229
200580,410,430,229
200596,438,431,312
200612,432,427,315
200628,426,445,308
200643,435,402,320
200659,409,400,278
200675,462,436,280
200691,460,411,262
200707,407,424,264
200722,397,414,244
200738,417,396,324
200794,430,468,226
200804,470,494,327
200814,422,405,283
200824,460,395,243
200834,409,429,215
200844,419,401,233
200854,458,452,358
200865,463,444,344
200881,463,434,382
201023,459,483,301
201033,477,471,305
201043,440,480,211
201053,448,479,327
201063,446,507,399
201127,470,508,375
201137,474,424,291
201149,485,468,240
201159,503,484,308
201172,506,490,329
201183,507,507,425
201193,486,480,425
201204,487,479,304
201214,498,493,307
201224,492,509,346
201234,491,512,464
201244,504,510,388
201254,493,499,339
201264,503,495,309
201274,504,465,388
201284,497,506,428
201294,498,491,403
201304,496,502,428
201314,507,510,380
201324,503,512,350
201334,509,510,294
201344,511,510,335
201354,512,510,407
201364,500,512,465
201374,501,513,458
201384,503,512,457
201394,503,506,349
201404,510,507,371
201418,497,512,412
201434,506,512,425
201450,508,512,432
201466,508,489,416
201482,496,508,489
201498,500,512,482
201513,498,509,452
201529,504,511,362
201545,509,511,433
201561,512,499,384
201577,512,509,417
201592,491,510,429
201608,502,510,437
201624,503,512,456
201640,511,500,417
201656,511,510,463
201672,513,492,446
201687,510,509,355
201703,498,511,378
201719,510,500,381
201735,508,510,418
201751,506,511,376
201766,506,512,424
201782,509,511,365
201798,485,487,421
201814,499,508,445
201830,497,510,326
201846,488,512,391
201861,502,512,361
201877,508,511,464
201893,510,511,422
201909,491,513,447
201925,502,510,461
201940,507,511,402
201956,471,512,280
201972,477,489,423
201988,475,481,397
202004,467,431,376
202020,486,498,359
202035,464,490,392
202051,426,472,341
202067,434,441,264
202083,467,500,307
202099,470,462,275
202115,410,448,253
202130,436,453,249
202146,431,445,244
202162,457,451,247
202178,434,448,202
202194,418,485,262
202209,429,422,297
202225,452,435,325
202241,459,427,342
202257,456,391,240
202273,466,380,236
202289,429,421,210
202304,438,481,274
202320,431,441,319
202336,429,418,288
202352,428,410,260
202368,449,430,270
202383,477,451,272
202399,431,444,261
202415,415,410,257
202431,399,399,300
202447,420,417,258
202463,451,410,224
202478,432,474,249
202494,448,474,260
202510,412,425,299
202526,448,442,188
202542,426,443,243
202557,434,414,197
202573,439,478,195
202589,432,400,289
202605,427,428,267
202621,413,389,254
202637,412,411,285
202652,405,412,218
202668,417,422,247
202684,408,399,192
202700,405,397,300
202716,443,471,248
202731,476,439,324
202747,456,444,263
202763,405,418,262
202779,420,432,238
202795,452,419,190
202811,405,406,227
202826,436,405,226
202842,436,395,199
202858,452,447,247
202874,427,425,225
202890,398,383,222
202905,428,387,275
202921,420,387,271
202937,431,423,254
202953,414,425,275
202969,441,396,207
202985,450,455,297
203000,450,421,259
203016,415,392,235
203032,443,407,297
203048,413,396,285
203064,427,462,291
203079,422,427,276
203095,414,442,229
203111,421,402,255
203127,417,422,230
203143,431,440,467
203159,411,417,196
203174,400,443,226
203190,429,423,301
203206,438,411,339
203222,453,414,238
203238,447,407,260
203253,443,390,201
203269,462,422,226
203285,428,426,232
203301,417,402,263
203317,436,388,326
203333,427,426,237
203348,408,408,293
203364,436,410,292
203380,444,437,243
203396,461,446,253
203412,408,391,309
203427,429,479,246
203443,467,429,283
203459,478,451,223
203475,438,457,280
203491,464,493,289
203507,467,470,265
203522,460,500,330
203538,480,499,300
203554,482,507,399
203570,471,460,360
203586,488,505,276
203602,506,501,436
203617,485,476,391
203650,493,507,453
203660,509,512,479
203670,506,473,416
203681,500,507,456
203696,484,512,370
203735,502,510,446
203745,507,489,470
203755,506,507,421
203765,506,510,464
203776,501,505,395
203791,505,458,455
203842,508,504,400
203852,511,505,429
203863,507,510,342
203873,512,505,359
203883,512,471,425
203893,513,503,352
203903,509,510,370
203918,508,510,380
203934,512,507,371
203950,502,510,375
203965,499,511,345
203981,509,512,395
203997,499,505,378
204013,490,510,367
204029,493,512,443
204045,509,512,437
204060,511,512,419
204076,512,512,365
204092,506,510,391
204108,511,512,416
204124,507,512,497
204139,510,512,423
204155,511,512,432
204171,504,505,466
204187,493,511,425
204203,490,512,385
204219,509,512,432
204234,505,507,434
204250,510,511,454
204266,494,512,495
204282,509,512,367
204298,501,513,447
204313,505,512,409
204329,510,502,446
204345,511,504,454
204361,510,510,441
204377,512,503,440
204393,510,508,396
204408,506,511,446
204424,510,511,426
204440,505,512,460
204456,496,512,423
204472,506,510,447
204488,505,511,376
204503,509,503,392
204519,512,475,396
204535,503,507,417
204551,496,510,436
204567,486,509,277
204582,503,507,307
204598,502,510,323
204614,496,512,303
204630,483,513,372
204646,500,488,369
204662,502,498,334
204677,492,507,233
204693,486,510,315
204709,490,505,422
204725,478,503,416
204741,497,510,471
204756,488,479,425
204772,472,508,444
204788,487,510,284
204804,480,475,350
204820,493,442,273
204836,509,491,310
204851,496,509,410
204867,481,496,419
204883,458,493,375
204899,461,471,394
204915,475,479,353
204931,454,466,350
204946,462,506,317
204962,474,466,393
204978,431,485,388
204994,446,439,297
205010,431,468,231
205025,453,411,261
205041,480,412,236
205057,481,489,332
205073,430,433,299
205089,453,435,325
205105,448,397,275
205120,416,404,242
205136,427,473,223
205152,439,423,425
205168,460,421,293
205184,479,415,681
205199,471,424,329
205215,439,500,322
205231,419,495,248
205247,427,427,269
205263,461,437,276
205279,428,487,252
205294,474,421,293
205310,482,418,350
205326,430,499,298
205342,436,435,271
205358,409,424,288
205373,419,425,279
205389,425,395,254
205405,425,464,246
205421,423,426,231
205437,419,462,251
205453,432,406,251
205468,393,394,291
205484,405,433,288
205500,438,428,324
205516,408,402,309
205532,415,446,306
205547,421,436,284
205563,411,414,218
205579,419,392,220
205595,417,422,217
205611,449,403,247
205627,435,427,317
205642,422,419,300
205658,430,450,290
205674,451,442,266
205690,431,409,248
205706,446,464,241
205721,444,406,215
205737,437,418,258
205753,420,389,261
205769,423,459,328
205785,444,482,306
205801,433,427,249
205816,453,433,254
205832,431,422,255
205848,434,497,256
205864,455,503,232
205880,454,506,318
205895,464,452,360
205911,450,499,349
205927,458,506,389
205943,484,511,386
205959,497,506,321
205975,505,509,383
205990,481,507,289
206006,491,507,307
206022,505,498,352
206038,505,508,335
206054,487,489,437
206069,489,503,357
206085,509,510,465
206101,501,502,388
206117,499,510,458
206133,481,504,451
206149,479,506,376
206164,508,498,338
206180,512,499,340
206196,509,490,309
206212,508,501,413
206228,499,510,465
206243,470,507,369
206259,503,503,434
206275,509,509,331
206291,511,508,363
206307,507,490,354
206323,512,509,433
206338,512,510,468
206354,499,511,451
206370,500,502,464
206386,494,510,386
206402,495,512,438
206417,509,511,381
206433,499,505,381
206449,486,510,382
206465,502,509,399
206481,505,511,456
206497,510,512,442
206512,511,512,388
206528,505,512,345
206544,511,502,294
206560,502,474,356
206576,508,506,373
206591,508,510,390
206607,506,510,435
206623,509,511,472
206639,507,509,411
206655,513,483,475
206671,510,507,477
206686,497,485,490
206702,493,507,459
206718,509,510,470
206734,507,510,454
206750,489,512,440
206765,500,513,448
206781,494,506,474
206797,503,460,413
206813,499,505,393
206829,509,510,371
206845,486,510,328
206860,491,511,309
206876,504,511,344
206892,495,490,294
206974,508,506,370
206984,511,509,414
206994,497,492,352
207004,494,508,365
207014,479,510,348
207024,507,510,318
207034,500,495,317
207045,483,509,262
207055,503,436,301
207065,475,501,281
207075,482,482,327
207085,450,491,345
207098,461,504,410
207172,469,501,306
207182,473,493,282
207193,455,423,328
207204,463,449,469
207255,488,495,218
207265,449,508,278
207275,467,510,268
207285,445,418,298
207295,468,478,228
207305,448,507,241
207315,477,446,269
207325,417,429,257
207335,444,417,273
207345,428,424,278
207355,452,422,329
207365,461,396,295
207378,455,415,258
207388,413,424,198
207398,426,412,237
207414,398,414,275
207430,432,408,329
207446,399,396,256
207462,427,398,253
207477,440,389,283
207493,435,444,279
207509,405,386,246
207525,408,390,246
207541,405,401,278
207556,423,386,211
207572,410,448,242
207588,389,388,292
207604,410,409,321
207620,433,417,300
207636,451,437,317
207651,405,397,314
207667,386,408,285
207683,419,407,233
207699,410,416,229
207715,437,425,233
207730,458,418,230
207746,405,424,260
207762,449,398,259
207778,426,410,197
207794,429,454,242
207810,449,478,255
207825,397,410,208
207841,423,446,240
207857,421,416,283
207873,427,408,276
207889,414,423,228
207904,438,421,311
207920,411,401,263
207936,392,388,235
207952,395,453,288
207968,407,409,262
207984,410,387,243
207999,415,406,223
208015,427,395,209
208031,454,405,215
208047,415,398,226
208063,433,381,294
208078,425,430,247
208094,439,418,234
208110,395,418,237
208126,391,427,280
208142,406,384,279
208158,417,415,264
208173,437,441,673
208189,401,391,245
208205,414,417,270
208221,408,408,225
208237,407,444,243
208252,425,413,229
208268,424,433,244
208284,423,427,242
208300,412,402,280
208316,463,416,296
208332,408,396,271
208347,418,428,280
208363,404,496,249
208379,404,472,259
208395,437,499,249
208411,437,487,256
208426,415,446,349
208442,434,460,375
208458,467,504,359
208474,449,495,333
208490,458,413,267
208506,442,466,286
208521,424,479,249
208537,434,505,277
208553,465,499,269
208569,463,484,306
208585,468,508,363
208600,460,511,319
208616,470,490,380
208632,474,505,344
208648,496,507,368
208664,492,505,339
208680,499,470,322
208695,497,506,321
208711,487,511,355
208727,486,504,253
208743,503,509,390
208759,510,510,386
208774,510,511,446
208790,506,512,407
208806,506,512,324
208822,508,506,421
208838,502,511,386
208854,511,492,419
208869,503,494,380
208885,511,507,441
208901,499,510,409
208917,506,510,461
208933,498,485,389
208948,503,508,364
208964,505,500,359
208980,507,507,353
208996,503,498,379
209012,499,492,369
209028,488,510,338
209043,508,508,348
209059,510,504,413
209075,511,506,349
209091,498,507,356
209107,491,487,389
209123,509,509,355
209138,504,511,331
209154,510,506,341
209170,511,510,348
209186,484,511,316
209202,503,511,342
209217,508,508,305
209233,508,502,375
209249,510,509,411
209265,511,508,416
209281,508,510,303
209297,512,497,397
209312,503,507,331
209328,499,510,411
209344,500,495,363
209360,504,458,425
209376,497,498,349
209392,494,500,283
209407,503,510,441
209423,494,509,392
209439,463,505,445
209455,464,496,395
209471,489,484,406
209486,476,451,307
209502,463,495,313
209518,452,482,254
209534,467,499,276
209550,486,488,251
209566,477,508,343
209581,408,417,314
209597,426,419,323
209613,434,466,290
209629,428,503,344
209645,432,413,313
209660,459,499,376
209676,466,432,296
209692,436,442,263
209708,424,402,331
209724,419,422,238
209740,413,487,250
209755,445,425,258
209771,420,412,222
209807,430,418,247
209817,459,446,237
209827,397,405,272
209837,414,429,223
209850,412,472,276
209888,411,445,277
209899,410,444,290
209909,427,407,298
209919,401,419,306
209929,421,383,225
210007,439,429,228
210017,448,471,245
210027,424,431,209
210037,435,434,226
210047,452,430,243
210061,439,431,273
210071,455,437,242
210081,422,418,289
210092,432,419,257
210102,421,406,273
210112,442,347,256
210122,398,417,277
210135,436,402,249
210151,462,445,275
210167,472,424,297
210182,459,418,259
210198,415,410,232
210214,460,366,239
210230,409,400,247
210246,418,492,258
210262,414,420,232
210277,464,405,256
210293,431,413,253
210309,381,381,275
210325,419,421,273
210341,421,418,326
210357,439,393,318
210372,465,396,312
210388,417,401,247
210404,404,490,263
210420,393,444,272
210436,426,408,261
210451,424,404,257
210467,405,403,243
210483,422,398,265
210499,423,411,325
210515,451,413,265
210531,416,395,231
210546,439,421,237
210562,430,413,282
210578,395,462,265
210594,415,418,278
210610,420,403,280
210625,427,397,328
210641,435,445,256
210657,426,428,258
210673,434,450,269
210689,438,401,242
210705,458,416,275
210720,405,422,303
210736,419,421,281
210752,414,409,240
210768,423,438,255
210784,436,428,225
210799,466,446,221
210815,452,403,238
210831,451,406,279
210847,435,437,269
210863,391,429,307
210878,434,402,261
210894,448,405,245
210910,453,460,267
210926,458,406,261
210942,458,477,248
210958,469,462,257
210973,436,420,243
210989,473,480,250
211005,463,492,272
211021,469,495,313
211037,463,455,411
211053,480,472,413
211068,497,507,410
211084,504,506,333
211100,506,511,294
211116,472,512,337
211132,505,510,316
211147,483,499,348
211163,470,511,290
211179,507,492,382
211195,454,474,329
211211,505,507,425
211227,503,510,419
211242,497,511,450
211258,510,510,443
211274,511,488,402
211290,500,509,408
211306,510,510,438
211321,511,495,438
211337,507,472,457
211353,509,503,431
211369,511,509,373
211385,495,511,385
211401,488,512,380
211416,508,513,411
211432,507,511,455
211448,506,475,444
211464,511,506,435
211480,508,509,475
211495,511,511,477
211511,512,510,482
211527,507,512,496
211543,505,512,464
211559,506,512,487
211575,511,512,435
211591,510,512,467
211606,513,512,488
211622,512,513,485
211638,513,512,448
211654,513,512,421
211669,506,489,455
211685,491,508,409
211701,493,503,446
211717,509,503,435
211733,511,507,428
211749,511,497,451
211764,506,509,491
211780,501,510,505
211796,510,511,465
211812,511,500,485
211828,506,511,483
211843,497,508,409
211859,498,508,426
211875,508,511,455
211891,507,505,387
211907,509,496,436
211923,511,509,392
211938,513,468,351
211954,500,506,398
211970,510,508,400
211986,509,510,418
212002,502,510,444
212017,507,510,447
212033,493,509,421
212049,485,512,443
212065,462,436,342
212081,462,447,389
212097,477,452,352
212112,425,427,297
212128,472,481,235
212144,483,463,329
212160,487,460,276
212176,449,507,306
212191,455,471,277
212207,483,460,273
212223,423,419,225
212239,456,467,259
212255,447,487,262
212271,457,468,292
212286,444,482,296
212302,446,487,292
212318,446,436,330
212334,468,439,270
212350,433,421,294
212365,418,418,297
212381,428,443,235
212397,446,398,220
212413,421,444,222
212429,435,476,220
212445,405,422,251
212460,413,422,270
212476,432,389,227
212492,484,476,313
212508,459,426,344
212524,419,468,325
212539,430,397,308
212555,448,429,254
212582,385,428,259
212592,375,415,230
212603,410,406,202
212619,424,399,217
212634,400,394,251
212650,377,386,257
212666,410,379,215
212743,410,428,263
212753,424,401,226
212763,402,388,293
212773,389,413,279
212783,395,432,246
212793,393,407,263
212803,415,377,272
212813,396,401,259
212855,403,407,226
212865,397,391,241
212875,394,406,217
212885,422,367,188
212895,386,384,187
212905,406,373,230
212915,431,389,276
212925,407,432,237
212937,390,393,204
212951,417,412,241
212967,409,396,186
212982,383,383,290
212998,408,423,225
213014,390,403,236
213030,400,406,271
213046,414,404,256
213061,409,392,186
213077,402,404,238
213093,399,416,245
213109,418,420,223
213125,405,416,234
213141,391,379,234
213156,381,390,231
213172,399,424,436
213188,395,406,183
213204,404,427,216
213220,395,373,218
213235,405,428,220
213251,403,426,258
213267,414,395,236
213283,387,392,241
213299,413,398,228
213315,438,421,240
213330,442,391,250
213346,385,382,217
213362,373,434,219
213378,400,410,256
213394,401,393,296
213409,408,382,275
213425,388,387,241
213441,418,381,213
213457,395,376,329
213473,410,380,304
213489,398,383,282
213504,410,442,274
213520,407,401,318
213536,397,441,303
213552,424,407,257
213568,404,376,220
213583,445,428,207
213599,457,481,254
213615,455,493,243
213631,437,496,279
213647,473,426,290
213663,444,425,278
213678,437,417,342
213694,450,503,338
213710,482,504,324
213726,476,466,268
213742,489,484,292
213757,467,472,373
213773,480,508,382
213789,495,500,443
213805,473,489,416
213821,470,508,373
213837,455,509,303
213852,481,484,303
213868,482,514,437
213884,446,446,368
213900,427,480,357
213916,459,407,239
213931,450,418,218
213947,437,388,295
213963,425,418,304
213979,424,415,290
213995,462,482,375
214011,479,468,281
214026,451,487,372
214042,486,495,311
214058,476,507,390
214074,476,498,331
214090,469,503,347
214106,497,495,420
214121,456,421,359
214137,462,464,736
214153,487,469,404
214169,452,501,250
214185,462,479,300
214200,462,484,378
214216,469,500,316
214232,460,455,320
214248,475,468,316
214264,480,464,288
214280,471,476,374
214295,438,433,304
214311,440,473,264
214327,452,408,277
214343,415,369,226
214359,401,416,279
214374,418,449,251
214390,401,367,227
214406,418,408,250
214422,412,393,283
214438,400,390,256
214454,414,404,294
214469,401,405,260
214485,392,415,283
214501,403,416,300
214517,443,429,295
214533,394,408,261
214548,384,376,242
214564,406,374,293
214580,405,383,254
214596,410,390,251
214612,418,404,262
214628,440,399,259
214643,389,394,258
214659,414,415,238
214675,404,410,229
214691,425,411,215
214707,421,449,237
214722,385,414,258
214738,384,372,241
214754,401,407,258
214770,455,381,276
214786,399,373,229
214802,408,406,295
214817,385,390,267
214833,402,381,288
214849,446,416,346
214865,391,412,271
214881,386,382,273
214896,396,404,267
214912,425,371,278
214928,414,386,259
214944,383,382,299
214960,430,398,257
214976,401,376,247
214991,419,380,300
215007,406,407,292
215023,394,399,283
215039,390,438,267
215055,365,401,253
215071,411,390,257
215086,385,420,251
215102,380,447,287
215118,399,428,477
215134,375,380,645
215150,409,387,291
215165,396,402,260
215181,436,393,251
215197,436,520,248
215213,401,374,292
215229,417,400,315
215244,464,410,252
215260,413,401,214
215276,400,413,217
215292,385,383,248
215308,413,408,236
215335,457,374,286
215345,413,394,280
215355,413,386,282
215371,385,387,275
215403,390,393,259
215413,392,393,222
215423,398,389,237
215434,403,392,283
215450,406,368,268
215511,392,385,253
215521,403,418,221
215531,408,378,286
215541,383,401,266
215551,375,411,290
215561,387,431,237
215571,423,412,256
215581,396,413,263
215593,414,370,228
215608,444,426,241
215624,456,411,226
215640,393,390,239
215656,437,494,238
215672,489,507,367
215687,467,512,391
215703,491,507,350
215719,487,511,382
215735,467,516,414
215751,497,510,439
215766,491,510,416
215782,507,510,425
215798,504,507,466
215814,507,512,369
215830,511,512,430
215846,503,510,471
215861,510,509,451
215877,503,505,448
215893,496,510,463
215909,501,512,407
215925,509,510,468
215941,501,476,419
215956,496,490,388
215972,499,509,403
215988,509,510,408
216004,496,506,400
216020,493,510,373
216035,508,510,448
216051,511,506,448
216067,508,474,405
216083,493,508,395
216099,509,508,337
216115,506,511,392
216130,511,479,735
216146,477,480,319
216162,489,474,351
216178,489,511,315
216194,484,487,341
216209,474,478,260
216225,477,512,285
216241,476,464,309
216257,485,511,281
216273,451,448,312
216289,447,483,268
216304,452,467,322
216320,476,493,374
216336,434,453,360
216352,477,440,360
216368,440,503,393
216383,470,418,388
216399,469,423,334
216415,467,470,288
216431,437,417,268
216447,453,461,221
216463,436,461,226
216478,435,438,249
216494,407,405,267
216510,435,421,316
216526,396,378,232
216542,419,402,219
216557,406,417,256
216573,413,414,315
216589,450,455,288
216605,444,423,300
216621,453,443,267
216637,431,389,274
216652,438,374,256
216668,415,453,278
216684,419,451,301
216700,414,407,289
216716,425,472,258
216731,435,431,249
216747,420,379,247
216763,440,467,252
216779,411,429,256
216795,426,444,285
216811,460,424,300
216826,421,429,252
216842,405,436,270
216858,419,435,302
216874,423,459,253
216890,450,433,286
216905,444,398,279
216921,420,408,266
216937,421,443,267
216953,424,384,270
216969,463,405,272
216985,431,425,234
217000,438,485,224
217016,417,432,237
217032,422,373,232
217048,425,430,305
217064,440,487,319
217079,462,461,430
217095,484,503,436
217111,518,508,430
217127,510,507,437
217143,501,522,376
217159,500,507,389
217174,498,509,463
217190,498,511,305
217206,492,511,371
217222,500,506,411
217238,551,514,428
217253,505,506,435
217269,505,494,435
217285,505,510,438
217301,509,511,454
217317,513,512,496
217333,512,510,522
217348,500,512,490
217364,510,507,485
217380,504,512,464
217396,498,514,452
217412,507,514,445
217428,511,521,480
217443,498,511,458
217459,511,507,492
217475,512,495,461
217491,511,506,428
217507,511,509,461
217522,503,511,492
217538,497,512,481
217554,512,501,435
217570,509,516,493
217586,509,506,468
217601,510,510,488
217617,504,505,479
217633,511,510,490
217649,512,510,509
217665,504,511,435
217681,511,513,474
217696,515,511,484
217712,512,512,499
217728,507,506,472
217744,510,512,495
217760,512,511,484
217776,508,512,444
217791,511,513,462
217807,512,513,435
217823,513,515,500
217839,528,492,462
217855,504,512,478
217870,476,501,403
217886,514,496,435
217902,427,464,280
217918,456,455,325
217934,411,422,242
217950,416,442,264
217965,405,409,244
217981,411,403,240
217997,415,393,245
218013,408,423,233
218029,422,385,260
218044,429,395,255
218060,414,379,211
218092,431,393,215
218102,440,404,180
218114,445,442,187
218125,427,477,188
218139,431,415,341
218184,410,385,209
218194,425,446,199
218205,444,427,242
218215,431,386,186
218226,414,407,226
218287,425,405,215
218297,419,466,228
218307,418,455,251
218318,406,410,247
218329,426,405,267
218339,443,466,325
218349,474,429,260
218359,418,510,257
218369,444,498,379
218379,426,398,276
218392,488,459,285
218408,470,475,243
218424,439,477,279
218440,452,461,264
218456,424,431,262
218472,443,473,231
218487,455,398,235
218503,467,469,243
218519,427,427,268
218535,473,454,227
218551,434,445,286
218566,435,466,393
218582,467,438,290
218598,460,422,365
218614,455,402,274
218630,435,410,273
218646,455,499,320
218661,461,428,280
218677,436,451,256
218693,440,418,243
218709,467,405,300
218725,482,458,269
218740,461,442,271
218756,426,392,311
218772,440,430,337
218788,456,456,389
218804,467,506,418
218820,489,512,368
218835,478,510,440
218851,496,510,424
218867,483,511,342
218883,489,487,414
218899,504,504,289
218914,507,518,484
218930,494,513,508
218946,511,513,512
218962,494,509,512
218978,501,513,512
218994,497,495,513
219009,499,508,512
219025,505,503,509
219041,509,498,510
219057,510,503,510
219073,506,495,513
219088,506,509,512
219104,487,496,514
219120,485,508,514
219136,500,482,513
219152,496,494,512
219168,499,493,513
219183,472,481,512
219199,497,507,512
219215,480,488,512
219231,483,507,512
219247,484,453,513
219263,498,493,512
219278,478,500,512
219294,494,471,512
219310,510,485,513
219326,499,500,512
219342,473,483,513
219357,503,508,513
219373,500,518,512
219389,491,511,513
219405,498,518,511
219421,479,511,513
219437,492,478,512
219452,496,498,512
219468,505,521,512
219484,482,480,513
219500,493,486,512
219516,490,509,512
219531,497,460,512
219547,502,502,513
219563,477,501,512
219579,491,514,512
219595,486,508,511
219611,508,498,513
219626,492,493,514
219642,491,500,512
219658,481,504,512
219674,490,490,513
219690,496,509,512
219706,507,512,512
219721,503,503,512
219737,480,510,512
219753,498,509,511
219769,501,503,512
219785,478,515,512
219800,493,477,514
219816,518,497,513
219832,493,484,512
219848,487,512,512
219864,493,524,512
219880,478,489,512
219895,488,490,513
219911,495,480,512
219927,492,495,513
219943,497,455,512
219959,514,501,512
219974,480,496,512
219990,495,517,512
220006,488,514,512
220022,447,510,511
220038,461,511,512
220054,456,514,512
220069,464,482,514
220085,485,512,513
220101,434,436,513
220117,452,501,512
220133,478,513,513
220149,464,508,512
220164,453,418,512
220180,472,473,513
220196,477,513,512
220212,480,489,513
220228,486,509,512
220243,460,441,513
220259,467,459,513
220275,481,492,513
220291,477,498,512
220307,471,470,513
220323,489,480,512
220338,470,490,513
220354,485,508,513
220370,460,474,512
220386,465,501,512
220402,491,508,512
220417,456,407,512
220433,439,494,512
220449,479,476,512
220465,462,465,513
220481,452,504,512
220497,472,386,512
220512,462,458,513
220528,466,499,513
220544,486,509,513
220560,434,433,513
220576,451,497,513
220592,441,466,513
220607,491,476,512
220623,492,486,512
220639,479,492,513
220655,476,503,513
220671,483,495,513
220686,485,512,513
220702,494,510,512
220718,478,507,513
220734,496,513,511
220759,508,501,513
220769,490,510,511
220781,503,510,512
220797,506,476,514
220834,481,497,513
220844,497,510,512
220854,498,510,512
220864,483,511,512
220876,480,485,519
221020,486,508,266
221030,464,502,262
221040,465,427,690
221050,451,435,696
221060,472,442,342
221070,461,485,288
221080,458,504,160
221090,480,462,95
221100,477,470,193
221111,479,495,84
221122,483,510,118
221133,506,512,118
221143,514,508,219
221153,510,497,834
221164,489,508,761
221174,475,509,234
221184,508,510,681
221194,505,508,696
221204,497,511,251
221215,510,511,865
221225,509,512,356
221236,507,511,416
221246,512,512,468
221256,511,512,512
221272,509,507,497
221287,512,511,518
221303,513,512,508
221319,514,511,491
221335,512,511,503
221351,510,512,489
221367,513,512,491
221382,511,513,505
221398,509,511,508
221414,512,512,502
221430,508,512,500
221446,514,486,489
221461,514,508,514
221477,512,511,516
221493,513,511,494
221509,511,512,517
221525,512,512,497
221541,512,512,505
221556,513,512,501
221572,513,511,441
221588,509,513,489
221604,506,512,490
221620,510,512,496
221636,511,513,497
221651,505,512,491
221667,508,512,488
221683,494,513,464
221699,503,511,484
221715,511,513,498
221730,512,512,507
221746,509,511,504
221762,502,513,513
221778,508,511,496
221794,511,511,506
221810,504,512,458
221825,509,512,482
221841,511,511,482
221857,512,512,492
221873,502,511,483
221889,498,513,487
221904,510,511,510
221920,511,512,503
221936,513,512,494
221952,512,511,505
221968,501,512,488
221984,503,513,483
221999,493,513,463
222015,491,512,480
222031,505,506,502
222047,499,511,452
222063,504,512,481
222079,510,512,469
222094,513,479,481
222110,507,507,462
222126,491,504,439
222142,503,510,435
222158,487,501,416
222173,471,453,390
222189,497,455,444
222205,468,494,466
222221,507,442,440
222237,478,501,409
222253,487,510,392
222268,488,441,397
222284,485,476,403
222300,467,475,398
222316,472,488,419
222332,474,490,417
222347,468,414,433
222363,489,461,416
222379,468,505,484
222395,449,505,441
222411,468,510,421
222427,488,455,425
222442,479,502,461
222458,457,498,429
222474,472,457,427
222490,470,497,448
222506,475,505,444
222521,458,503,422
222537,468,462,393
222553,466,505,390
222569,477,434,410
222585,483,501,397
222601,440,443,422
222616,442,480,421
222632,486,445,442
222648,458,450,415
222664,442,500,381
222680,450,462,401
222695,473,485,390
222711,445,459,399
222727,452,453,369
222743,463,505,420
222759,476,490,415
222775,463,480,455
222790,459,479,438
222806,475,508,393
222822,470,491,400
222838,488,504,431
222854,472,505,393
222869,473,499,418
222885,487,493,412
222901,488,498,434
222917,472,507,447
222933,486,511,427
222949,482,506,426
222964,492,508,482
222980,499,500,455
222996,491,509,444
223012,479,514,454
223028,488,507,441
223044,509,521,463
223060,490,505,485
223075,503,496,487
223091,493,501,446
223107,500,499,438
223123,489,488,441
223138,458,461,454
223154,489,502,477
223170,488,436,429
223186,493,494,434
223202,501,509,466
223218,494,510,446
223233,491,494,463
223249,503,508,478
223265,501,507,453
223281,497,507,480
223297,509,510,493
223312,500,507,479
223328,510,513,492
223344,509,511,506
223360,511,512,480
223376,508,506,492
223392,511,510,498
223407,512,511,495
223423,498,502,500
223439,509,510,491
223455,503,510,499
223471,511,509,506
223486,512,512,497
223524,513,511,495
223534,494,505,497
223544,506,513,482
223554,507,511,509
223566,502,507,492
223581,493,510,493
223597,499,511,513
223641,508,512,502
223651,507,509,495
223661,505,500,499
223671,509,508,493
223681,509,508,505
223692,505,511,506
223756,499,509,481
223766,496,512,487
223776,509,513,494
223786,499,501,468
223796,506,497,473
223806,502,509,467
223816,510,509,473
223826,499,489,484
223836,510,498,495
223850,509,507,477
223866,494,509,480
223882,489,513,480
223898,503,494,474
223914,509,509,416
223929,487,509,459
223945,490,466,459
223961,488,504,471
223977,463,510,459
223993,464,511,447
224008,475,480,423
224024,501,509,416
224040,492,473,421
224056,487,473,433
224072,473,488,449
224088,498,506,439
224103,499,495,427
224119,472,441,419
224135,485,498,449
224151,467,466,422
224167,451,473,430
224182,446,417,401
224198,448,451,411
224214,464,476,394
224230,434,416,391
224246,430,414,393
224262,446,396,394
224277,430,406,405
224293,472,456,403
224309,429,431,395
224325,435,394,382
224341,449,426,410
224356,433,443,388
224372,437,408,383
224388,419,385,403
224404,409,444,391
224420,408,385,397
224436,430,427,390
224451,453,401,401
224467,408,393,382
224483,417,390,381
224499,440,388,384
224515,449,467,390
224531,424,467,386
224546,463,422,387
224562,420,394,398
224578,399,420,402
224594,446,427,402
224610,412,397,383
224625,399,406,395
224641,437,375,390
224657,407,432,377
224673,419,404,388
224689,429,407,390
224705,435,406,400
224720,449,401,392
224736,427,426,379
224752,398,396,383
224768,420,415,401
224784,421,401,399
224799,454,419,405
224815,419,408,380
224831,408,397,396
224847,420,454,381
224863,415,454,389
224879,426,386,391
224894,418,403,397
224910,416,391,396
224926,432,383,383
224942,445,438,389
224958,438,448,391
224973,432,416,396
224989,418,415,401
225005,477,427,377
225021,447,431,401
225037,447,465,395
225053,418,471,387
225068,431,423,404
225084,440,446,408
225100,427,394,418
225116,447,461,396
225132,445,503,404
225147,418,444,663
225163,454,383,394
225179,726,428,390
225195,458,450,394
225211,474,504,430
225227,486,499,439
225242,499,510,467
225258,478,511,463
225274,492,510,463
225290,508,502,460
225306,496,496,461
225321,497,510,448
225337,504,501,457
225353,510,507,450
225369,504,511,443
225385,510,501,487
225401,510,509,501
225416,497,504,481
225432,505,509,501
225448,501,511,496
225464,500,508,482
225480,494,507,505
225495,500,505,500
225511,502,485,479
225527,499,473,460
225543,484,493,485
225559,499,510,472
225575,499,510,459
225590,494,466,450
225606,443,458,415
225622,414,415,380
225638,368,351,383
225654,379,404,379
225669,382,376,372
225685,381,379,363
225701,375,407,373
225717,386,398,389
225733,418,436,384
225749,400,395,376
225764,392,375,402
225780,383,387,377
225796,375,430,378
225812,404,392,375
225828,411,375,381
225843,399,402,367
225859,390,398,367
225875,411,401,376
225891,388,427,391
225907,381,403,368
225923,399,400,379
225938,424,426,401
225954,437,416,381
225970,429,482,389
225986,432,411,388
226002,409,409,380
226017,426,399,403
226033,427,400,387
226049,387,393,386
226065,394,396,376
226081,378,437,370
226097,387,379,365
226112,357,378,376
226128,369,404,368
226144,372,401,375
226160,368,374,387
226176,372,353,366
226191,365,328,357
226207,361,322,366
226223,353,329,371
226239,363,341,365
226255,358,331,367
226271,355,353,375
226286,386,328,364
226302,369,399,365
226318,399,351,366
226334,362,395,367
226350,376,378,385
226365,401,394,373
226381,398,387,374
226435,404,398,375
226445,398,388,375
226456,385,403,382
226466,400,389,375
226514,403,374,383
226524,390,388,365
226534,386,402,383
226544,445,379,393
226554,404,384,367
226564,407,392,365
226637,385,372,379
226647,382,405,365
226657,371,424,364
226667,387,374,371
226677,375,377,361
226687,383,366,371
226697,378,400,379
226707,374,405,381
226717,382,343,372
226727,375,367,374
226737,363,377,372
226747,376,361,357
226757,369,356,360
226767,374,354,378
226777,375,352,364
226793,364,324,357
226808,382,332,364
226824,365,355,377
226840,361,326,366
226856,362,368,362
226872,368,338,373
226887,372,329,364
226903,360,307,361
226919,379,332,364
226935,369,308,369
226951,371,321,364
226967,357,352,363
226982,372,323,360
226998,385,341,362
227014,373,340,359
227030,357,365,359
227046,356,333,356
227061,358,312,362
227077,352,317,362
227093,356,298,363
227109,372,310,369
227125,373,343,373
227141,363,335,368
227156,360,330,359
227172,375,337,361
227188,367,373,366
227204,370,390,363
227220,371,341,360
227235,388,357,372
227251,383,408,379
227267,374,380,373
227283,381,414,364
227299,395,404,365
227315,388,388,360
227330,438,457,369
227346,453,396,368
227362,439,377,386
227378,462,480,385
227394,478,495,384
227409,451,487,390
227425,434,383,381
227441,396,422,376
227457,417,406,363
227473,373,410,392
227489,390,433,367
227504,431,388,365
227520,418,418,371
227536,435,442,393
227552,429,457,368
227568,438,414,381
227583,458,418,376
227599,416,429,413
227615,423,477,375
227631,419,472,382
227647,423,484,386
227663,430,488,366
227678,426,486,369
227694,440,470,371
227710,453,439,367
227726,410,420,376
227742,390,415,374
227757,393,397,379
227773,417,421,372
227789,408,393,358
227805,376,372,361
227821,422,401,360
227837,405,380,363
227852,409,362,351
227868,391,371,353
227884,396,386,369
227900,390,371,380
227916,386,382,373
227931,405,419,373
227947,416,432,367
227963,419,401,382
227979,401,393,386
227995,415,411,376
228011,455,399,377
228026,430,389,367
228042,402,383,393
228058,421,414,374
228074,425,385,373
228090,433,396,360
228106,428,445,385
228121,422,410,362
228137,431,442,389
228153,441,434,378
228169,435,477,377
228185,443,502,379
228200,419,433,375
228216,430,445,404
228232,445,418,406
228248,480,410,401
228264,450,433,382
228280,425,397,414
228295,457,430,363
228311,452,437,382
228327,447,391,373
228343,472,427,378
228359,438,442,372
228374,457,458,381
228390,450,503,395
228406,432,493,369
228422,434,458,376
228438,435,437,383
228454,443,466,386
228469,451,428,389
228485,455,471,394
228501,449,468,390
228517,461,442,397
228533,472,455,378
228549,456,472,364
228564,468,419,388
228580,443,491,380
228596,448,493,381
228612,452,433,378
228628,452,477,381
228643,469,461,363
228659,456,498,382
228675,457,476,372
228691,442,491,412
228707,459,505,437
228723,457,511,432
228738,460,483,409
228754,447,483,393
228770,418,477,386
228786,464,434,389
228802,449,418,397
228817,443,457,391
228833,441,479,369
228849,443,443,413
228865,459,461,373
228881,460,487,377
228897,458,508,382
228912,483,477,382
228928,452,427,405
228944,470,496,391
228960,476,510,390
228976,450,508,402
228992,461,473,398
229007,486,475,403
229023,475,478,411
229039,486,486,402
229055,485,471,393
229071,473,498,402
229086,498,510,414
229102,487,502,419
229118,481,493,474
229134,483,509,451
229150,477,509,406
229191,476,481,406
229201,488,486,413
229213,496,487,406
229223,501,494,386
229234,500,509,419
229245,494,509,434
229279,501,512,412
229289,486,486,391
229299,467,508,418
229309,490,509,450
229324,470,511,423
229340,476,500,427
229355,483,501,404
229371,488,509,437
229387,482,511,423
229456,498,500,453
229466,505,496,438
229476,477,509,445
229486,478,492,408
229496,458,509,441
229506,482,461,453
229516,469,495,417
229526,488,485,403
229536,485,393,399
229546,468,483,397
229561,443,493,399
229577,477,490,451
229593,473,508,404
229608,482,496,427
229624,488,456,402
229640,476,495,400
229656,478,510,412
229672,458,505,402
229688,472,486,409
229703,484,501,391
229719,468,443,403
229735,484,480,412
229751,471,409,405
229767,475,494,399
229782,481,436,401
229798,444,435,409
229814,452,433,389
229830,449,481,391
229846,440,403,393
229862,443,470,383
229877,435,434,411
229893,452,464,391
229909,463,470,413
229925,483,501,398
229941,463,459,389
229956,448,450,384
229972,466,504,420
229988,462,452,406
230004,452,448,397
230020,438,461,382
230036,418,456,392
230051,431,414,379
230067,421,402,379
230083,434,421,370
230099,443,499,408
230115,444,489,393
230130,472,448,386
230146,463,441,402
230162,443,503,379
230178,464,432,384
230194,471,500,393
230210,491,492,428
230225,460,510,424
230241,444,512,409
230257,460,511,419
230273,463,480,411
230289,445,471,404
230304,467,505,419
230320,485,456,448
230336,477,485,409
230352,484,482,441
230368,463,429,425
230384,474,473,459
230399,474,507,416
230415,468,450,400
230431,469,468,458
230447,490,507,427
230463,451,511,448
230478,471,512,436
230494,448,510,432
230510,482,442,402
230526,475,499,419
230542,481,452,433
230558,461,505,431
230573,493,506,413
230589,479,511,413
230605,478,461,457
230621,488,473,423
230637,473,507,429
230652,492,512,452
230668,465,511,478
230684,499,510,441
230700,475,511,476
230716,497,490,471
230732,504,469,459
230747,506,504,486
230763,507,512,490
230779,510,510,478
230795,510,511,486
230811,502,511,494
230826,510,511,489
230842,504,512,471
230858,504,503,473
230874,505,496,462
230890,503,509,478
230906,510,511,481
230921,508,511,478
230937,511,498,486
230953,507,509,484
230969,496,510,499
230985,506,511,472
231000,507,512,464
231016,501,513,480
231032,511,488,466
231048,508,508,501
231064,509,509,494
231080,511,507,488
231095,505,510,489
231111,505,480,465
231127,508,508,486
231143,499,509,486
231159,478,511,470
231174,480,511,471
231190,486,500,470
231206,508,506,489
231222,499,503,479
231238,498,509,487
231254,499,505,479
231269,493,493,458
231285,503,508,455
231301,506,508,477
231317,501,511,474
231333,508,511,460
231348,506,500,487
231364,510,509,441
231380,485,511,451
231396,503,512,464
231412,505,512,482
231428,511,484,471
231443,496,506,460
231459,486,470,478
231475,477,506,441
231491,474,509,428
231507,499,509,406
231522,484,461,433
231538,479,493,436
231554,499,483,432
231570,479,508,410
231586,479,470,433
231602,490,507,434
231617,468,483,480
231633,457,508,415
231649,448,511,398
231665,451,464,384
231681,447,419,391
231697,449,416,409
231712,423,421,402
231728,468,458,378
231744,452,488,422
231760,447,462,411
231776,424,428,390
231791,455,446,413
231807,455,431,385
231823,455,447,434
231839,436,460,380
231855,443,469,397
231871,456,505,414
231886,456,509,430
231902,442,482,385
231918,434,472,391
231934,436,507,391
231950,468,399,386
231965,438,403,379
231981,424,442,376
231997,459,419,381
232027,437,401,378
232037,455,461,385
232047,435,468,392
232060,436,425,401
232076,431,479,386
232092,450,485,384
232108,474,490,376
232124,421,429,376
232139,442,370,395
232180,435,461,396
232190,420,435,375
232201,431,414,363
232211,451,433,401
232222,449,476,395
232336,471,431,406
232346,492,501,432
232356,487,498,411
232366,480,510,410
232376,478,474,434
232386,489,507,403
232396,502,512,408
232406,482,511,416
232416,486,493,425
232426,490,508,406
232436,486,510,423
232450,470,511,443
232460,485,511,451
232470,479,485,395
232480,476,460,410
232490,481,494,405
232500,470,507,444
232510,450,490,398
232520,473,479,425
232535,460,505,443
232551,454,427,426
232567,461,446,411
232582,487,471,392
232598,483,445,452
232614,482,495,464
232630,485,510,438
232646,483,509,447
232661,497,491,465
232677,501,507,471
232693,493,510,483
232709,490,490,470
232725,510,508,476
232741,511,509,488
232756,507,511,489
232772,511,496,461
232788,511,509,460
232804,490,510,477
232820,494,501,487
232835,509,499,465
232851,511,509,439
232867,494,510,469
232883,502,511,458
232899,504,511,457
232915,509,507,448
232930,498,507,429
232946,511,511,472
232962,499,486,478
232978,490,494,453
232994,496,507,442
233009,503,509,424
233025,510,510,447
233041,511,510,467
233057,511,512,469
233073,508,512,444
233089,510,512,439
233104,509,502,454
233120,495,510,481
233136,483,512,472
233152,504,512,470
233168,507,500,464
233183,509,510,498
233199,526,502,476
233215,514,510,467
233231,512,511,481
233247,513,512,488
233263,510,504,495
233278,513,510,506
233294,514,509,509
233310,498,512,489
233326,506,507,494
233342,504,511,507
233357,500,512,499
233373,487,512,499
233389,505,512,495
233405,511,510,497
233421,511,512,491
233437,509,512,487
233452,514,512,502
233468,513,507,503
233484,504,504,496
233500,511,510,490
233516,498,499,495
233531,502,510,495
233547,509,511,469
233563,500,512,482
233579,504,513,490
233595,511,508,476
233611,508,512,501
233626,507,510,490
233642,507,512,498
233658,500,512,474
233674,505,513,483
233690,511,512,480
233706,513,502,495
233721,511,510,499
233737,506,512,487
233753,511,512,489
233769,513,512,475
233785,504,513,442
233800,499,506,458
233816,510,510,428
233832,507,454,472
233848,510,499,451
233864,503,510,448
233880,497,486,429
233895,502,508,414
233911,505,509,433
233927,482,498,423
233943,497,508,476
233959,502,509,476
233974,487,504,429
233990,489,503,426
234006,479,501,444
234022,477,495,463
234038,487,510,464
234054,489,510,434
234069,493,510,448
234085,477,488,387
234101,475,446,410
234117,479,504,434
234133,491,431,427
234149,485,481,408
234164,460,478,405
234180,485,507,409
234196,483,510,416
234212,481,512,409
234228,477,502,449
234243,477,509,446
234259,500,512,458
234275,469,501,418
234291,480,477,418
234307,501,508,452
234323,501,493,453
234338,482,470,436
234354,469,444,419
234370,488,484,412
234386,499,509,409
234402,495,512,441
234417,483,506,424
234433,479,503,411
234449,508,482,429
234465,499,430,407
234481,508,457,462
234497,507,492,482
234512,495,491,462
234528,489,507,480
234544,507,507,488
234560,509,495,484
234576,495,495,486
234592,504,501,453
234607,507,509,454
234623,490,510,481
234639,507,471,478
234655,489,500,463
234671,507,475,459
234686,510,508,417
234702,478,477,469
234718,501,505,444
234734,501,491,452
234750,487,507,477
234766,476,510,447
234781,490,506,431
234797,475,502,428
234813,482,469,415
234829,492,493,410
234845,489,510,450
234895,494,444,411
234905,471,501,417
234915,478,511,445
234925,484,509,430
234935,488,510,402
234945,457,508,416
234955,463,504,406
234971,452,466,440
235015,487,492,389
235025,447,434,398
235035,466,484,414
235045,447,445,392
235055,461,502,427
235066,456,500,445
235132,483,493,418
235142,469,503,417
235153,463,472,408
235164,494,481,425
235174,465,453,399
235184,463,503,376
235195,478,494,391
235205,481,510,400
235215,481,469,461
235225,470,442,475
235240,446,474,393
235256,454,408,383
235272,487,482,393
235288,447,451,388
235303,433,432,393
235319,449,476,398
235335,478,441,429
235351,429,471,397
235367,446,500,396
235382,469,418,400
235398,488,498,378
235414,460,463,385
235430,434,469,392
235446,440,491,403
235462,453,447,385
235477,439,450,413
235493,439,459,392
235509,456,422,379
235525,443,447,379
235541,447,404,375
235557,445,471,399
235572,466,488,397
235588,457,460,406
235604,461,439,383
235620,447,447,376
235636,454,433,380
235651,460,468,400
235667,467,490,409
235683,486,509,407
235699,447,510,434
235715,450,503,427
235731,471,438,421
235746,459,503,415
235762,464,458,399
235778,483,482,426
235794,476,484,401
235810,456,484,399
235826,447,501,401
235841,477,490,396
235857,491,507,401
235873,487,512,393
235889,464,495,390
235905,474,506,422
235920,492,462,408
235936,469,457,418
235952,473,450,393
235968,445,447,449
235984,445,496,395
236000,438,428,386
236015,443,490,381
236031,446,485,382
236047,468,434,366
236063,476,461,377
236079,435,438,380
236094,422,415,387
236110,438,400,401
236126,430,493,390
236142,430,468,399
236158,437,488,387
236174,440,406,382
236189,438,413,393
236205,436,451,391
236221,456,472,395
236237,432,418,413
236253,442,463,406
236269,426,502,386
236284,450,478,393
236300,465,492,382
236316,461,453,389
236332,447,486,391
236348,469,505,411
236363,484,487,434
236379,486,505,433
236395,491,511,431
236411,489,512,427
236427,506,511,470
236443,501,511,443
236458,510,504,452
236474,486,510,426
236490,506,511,429
236506,492,508,446
236522,504,511,446
236537,510,512,428
236553,486,498,476
236569,490,507,457
236585,480,438,390
236601,488,460,394
236617,446,436,386
236632,426,449,400
236648,437,485,378
236664,441,439,381
236680,432,409,382
236696,395,433,374
236711,439,428,381
236727,438,439,392
236743,424,449,378
236759,429,401,377
236775,447,418,391
236791,439,473,428
236806,444,418,383
236822,433,427,403
236838,430,414,382
236854,418,395,386
236870,419,434,387
236885,451,438,399
236901,406,441,379
236917,407,433,380
236933,413,434,383
236949,428,439,380
236965,453,429,384
236980,438,425,396
236996,425,442,412
237012,419,405,384
237028,420,398,379
237044,426,435,383
237059,414,424,395
237075,417,419,380
237091,425,411,381
237107,425,372,386
237123,440,386,380
237139,419,408,383
237154,409,455,403
237170,412,458,389
237186,417,416,387
237202,439,423,381
237218,435,413,377
237234,411,391,374
237249,429,441,400
237265,440,476,402
237281,457,442,401
237297,437,410,388
237313,477,481,384
237328,457,466,402
237344,413,444,407
237360,436,402,383
237376,449,496,384
237392,444,426,385
237408,416,439,381
237423,412,494,393
237439,438,390,380
237455,414,481,385
237471,463,409,398
237487,472,473,398
237502,447,415,369
237518,426,468,379
237534,463,498,392
237550,457,463,399
237566,470,464,401
237582,461,421,395
237597,430,410,411
237613,419,451,417
237629,476,442,422
237645,449,456,414
237661,447,469,417
237676,435,423,386
237692,443,423,392
237708,459,389,384
237724,469,455,398
237740,413,386,371
237756,438,440,388
237771,439,468,414
237787,446,450,395
237803,469,487,414
237819,468,483,422
237835,462,484,412
237850,455,453,381
237881,463,457,381
237891,452,443,389
237901,461,438,376
237914,444,401,411
237930,443,408,381
237945,426,388,391
237995,461,479,404
238005,481,486,403
238015,458,442,405
238025,447,484,393
238035,457,421,395
238045,452,413,385
238056,442,485,379
238072,428,448,394
238088,442,442,393
238104,427,429,401
238119,440,442,447
238451,48,494,389476,415
238461,478,506,391
238471,482,478,410
238481,477,439,410
238491,454,461,423
238501,458,496,409
238511,471,455,414
238521,480,496,418
238531,461,485,424
238541,458,468,423
238551,450,481,424
238561,435,419,413
238572,436,430,394
238582,443,449,394
238592,447,498,404
238602,422,445,404
238612,425,395,396
238622,406,419,392
238632,423,389,402
238642,427,413,396
238652,440,453,393
238662,427,492,421
238672,441,421,442
238682,434,421,404
238692,461,473,391
238702,429,411,392
238712,467,402,378
238722,443,409,393
238732,428,425,398
238742,413,416,389
238752,425,424,380
238762,406,395,388
238772,434,392,409
238782,434,380,390
238792,438,457,383
238802,406,430,380
238812,435,429,411
238822,473,387,393
238832,447,384,391
238842,407,397,387
238852,443,427,391
238862,406,447,389
238872,428,443,385
238882,439,427,381
238892,449,416,392
238902,427,428,398
238912,433,451,420
238922,425,443,398
238932,426,436,377
238943,451,456,402
238953,474,418,396
238963,433,495,390
238974,437,467,394
238989,460,484,416
239005,464,492,427
239021,489,491,423
239037,470,504,427
239053,491,507,440
239068,510,503,453
239084,512,491,443
239100,512,502,459
239116,507,492,447
239132,506,505,462
239148,510,495,450
239163,499,513,484
239179,501,505,501
239195,502,509,488
239211,497,510,501
239227,505,509,482
239242,509,511,491
239258,508,512,496
239274,511,512,475
239290,508,512,470
239306,511,512,490
239322,513,512,502
239337,507,512,481
239353,512,512,502
239369,499,494,511
239385,510,509,501
239401,490,512,508
239417,509,511,504
239432,503,513,500
239448,510,501,505
239464,511,508,507
239480,512,505,505
239496,495,510,503
239511,495,512,500
239527,504,513,508
239543,508,504,503
239559,500,510,491
239575,507,511,492
239591,504,512,498
239606,510,506,507
239622,512,510,495
239638,507,512,487
239654,511,508,495
239670,499,511,496
239685,511,512,490
239701,508,492,503
239717,508,509,499
239733,511,511,485
239749,513,512,509
239765,513,512,498
239780,506,512,490
239796,502,512,497
239812,510,512,493
239828,498,512,505
239844,511,512,508
239859,512,512,508
239875,508,512,503
239891,510,512,509
239907,496,505,493
239923,510,510,483
239939,512,512,495
239954,510,508,507
239970,510,511,499
239986,512,512,503
240002,502,512,510
240018,510,512,509
240033,509,512,513
240049,513,512,508
240065,498,513,503
240081,502,512,506
240097,503,506,497
240113,513,511,491
240128,507,512,509
240144,498,507,502
240160,499,511,506
240176,511,512,495
240192,512,512,504
240207,505,513,492
240223,509,501,500
240239,509,510,505
240255,513,512,488
240271,504,513,489
240287,495,505,490
240302,496,511,484
240318,508,512,483
240334,511,507,484
240350,512,503,487
240366,507,510,502
240382,511,511,488
240397,513,512,501
240413,496,488,470
240429,508,508,468
240445,502,503,453
240461,501,510,492
240476,505,511,498
240492,510,511,462
240508,505,512,457
240524,508,511,473
240540,510,512,484
240556,513,512,485
240571,501,509,500
240587,509,511,488
240603,511,512,464
240619,509,512,469
240635,499,512,491
240651,502,512,496
240666,499,513,480
240682,504,510,482
240698,504,512,464
240714,517,512,482
240730,508,501,492
240745,513,510,487
240761,507,512,477
240777,507,492,462
240793,507,508,463
240809,506,511,466
240825,506,502,462
240840,513,510,492
240856,509,511,491
240872,544,511,482
240888,517,512,462
240904,510,506,462
240919,498,510,489
240935,500,511,476
240951,480,512,464
240967,478,512,485
240983,488,505,445
240999,489,502,418
241014,491,509,438
241030,491,511,445
241046,499,487,477
241062,505,499,482
241078,506,510,481
241094,491,509,444
241132,485,501,441
241143,496,495,495
241154,484,509,489
241165,473,505,457
241176,483,509,447
241230,477,508,474
241240,462,439,389
241250,455,499,421
241260,397,510,412
241270,392,475,428
241280,480,503,422
241290,457,477,400
241300,433,473,413
241315,451,480,396
241331,478,507,447
241392,464,493,466
241402,451,483,432
241412,448,506,409
241422,456,437,401
241432,487,500,436
241442,462,488,442
241452,473,499,466
241462,498,498,472
241473,491,495,477
241489,507,500,480
241505,499,510,456
241521,503,508,462
241537,490,507,444
241552,501,510,491
241568,504,506,505
241584,510,510,464
241600,509,511,472
241616,500,503,479
241631,508,509,489
241647,502,511,489
241663,499,511,503
241679,508,511,483
241695,507,512,503
241711,503,513,501
241726,510,512,504
241742,508,512,499
241758,509,513,498
241774,509,512,488
241790,505,512,488
241805,513,505,495
241821,508,511,494
241837,517,505,488
241853,511,509,503
241869,504,511,483
241885,508,511,490
241900,497,512,509
241916,518,506,494
241932,519,508,486
241948,489,511,505
241964,497,512,498
241979,512,482,498
241995,505,507,487
242011,505,510,489
242027,495,510,505
242043,500,512,504
242059,511,512,510
242074,510,511,512
242090,513,513,510
242106,514,497,502
242122,513,511,501
242138,511,507,510
242154,513,509,489
242169,487,511,502
242185,500,512,502
242201,513,512,495
242217,513,512,504
242233,515,512,504
242248,509,511,509
242264,506,511,516
242280,513,512,498
242296,514,512,492
242312,514,512,501
242328,510,512,498
242343,497,512,507
242359,509,511,512
242375,512,513,505
242391,504,511,495
242407,493,511,497
242423,502,512,489
242438,510,510,502
242454,502,512,495
242470,510,508,492
242486,509,511,501
242502,508,511,498
242517,500,501,504
242533,506,511,497
242549,500,510,492
242565,492,513,481
242581,508,512,465
242597,501,504,438
242612,500,510,425
242628,485,508,474
242644,462,507,443
242660,477,459,480
242676,465,454,423
242691,432,406,381
242707,461,444,398
242723,443,413,385
242739,432,383,398
242755,439,415,397
242771,428,411,390
242786,410,393,384
242802,464,414,398
242818,445,438,389
242834,428,411,390
242850,417,408,398
242866,411,390,387
242881,390,392,384
242897,398,411,386
242913,426,412,382
242929,390,415,382
242945,402,389,373
242960,402,384,380
242976,425,385,382
242992,425,404,384
243008,417,406,387
243024,410,385,382
243040,406,402,385
243055,385,387,380
243071,423,388,394
243087,420,406,393
243103,433,433,381
243119,395,425,383
243134,392,382,384
243150,406,367,396
243166,394,382,389
243182,398,375,401
243198,416,378,385
243214,405,382,386
243229,440,411,385
243245,456,398,393
243261,385,428,385
243277,393,386,379
243293,420,406,374
243308,389,411,379
243324,394,402,391
243340,398,398,378
243356,402,397,382
243372,410,376,373
243388,423,387,381
243403,396,387,370
243419,399,403,372
243435,396,395,370
243451,400,425,376
243467,422,403,370
243543,395,373,370
243553,399,389,395
243563,409,396,376
243573,413,393,370
243583,389,408,374
243593,391,384,386
243603,406,419,373
243764,406,422,383
243774,424,396,378
243784,426,382,387
243794,448,401,402
243804,425,367,394
243814,416,406,374
243897,428,403,400
243907,430,387,399
243917,469,411,378
243927,440,386,388
