424344,41,22,609
424354,40,25,433
424364,26,17,608
424374,20,12,624
424384,15,9,602
424394,12,5,617
424404,10,5,226
424414,9,3,638
424425,7,3,204
424435,10,2,605
424446,6,1,370
424456,11,1,638
424466,5,0,501
424476,9,0,305
424487,3,0,493
424497,10,1,584
424507,11,1,640
424517,11,0,577
424527,7,0,307
424537,6,1,594
424548,2,0,244
424558,1,0,516
424568,8,0,270
424578,9,0,325
424588,8,0,660
424598,8,0,644
424608,7,0,204
424618,7,0,283
424628,7,0,509
424638,6,0,493
424649,7,0,323
424664,4,0,223
424680,3,0,607
424696,12,0,592
424711,8,0,266
424727,3,0,339
424742,6,0,162
424758,3,0,399
424774,9,0,685
424789,7,0,320
424805,9,0,619
424820,7,0,129
424836,5,0,644
424852,5,0,297
424867,4,0,504
424883,4,0,276
424899,8,0,638
424914,7,0,269
424930,9,0,636
424946,5,0,607
424961,7,0,633
424977,2,0,561
424993,4,0,628
425008,7,0,605
425024,8,0,631
425039,6,0,626
425056,12,0,597
425072,12,0,658
425088,13,0,639
425102,8,0,618
425118,7,0,643
425133,5,0,167
425149,6,0,243
425165,8,0,662
425180,2,0,117
425196,3,0,361
425212,7,0,623
425228,10,0,554
425243,5,0,348
425259,8,0,628
425274,5,0,595
425290,5,0,523
425306,7,0,598
425321,5,0,635
425338,11,0,669
425354,11,0,650
425368,7,0,608
425384,7,0,632
425399,4,0,609
425415,7,0,623
425431,9,0,587
425446,2,0,362
425462,4,0,556
425478,4,0,594
425493,8,0,345
425509,5,0,594
425525,4,0,182
425540,5,0,210
425556,4,0,614
425572,9,0,590
425587,6,0,524
425603,1,0,571
425618,5,0,686
425634,3,0,215
425650,7,0,628
425666,10,0,631
425681,5,0,290
425697,7,0,607
425712,6,0,179
425728,6,0,482
425744,7,0,650
425759,2,0,205
425775,5,0,478
425791,9,0,661
425806,4,0,273
425822,3,0,190
425838,7,0,609
425853,2,0,621
425869,6,0,424
425884,7,0,704
425900,9,0,640
425916,7,0,664
425931,2,0,418
425947,6,0,590
425963,4,0,415
425978,6,0,629
425994,1,0,603
426010,6,0,652
426025,6,0,616
426041,6,0,645
426056,1,0,274
426072,7,0,656
426088,6,0,625
426103,5,0,585
426120,10,0,624
426135,4,0,134
426150,2,0,632
426166,7,0,654
426182,7,0,633
426198,10,0,476
426213,9,0,633
426229,3,0,468
426244,6,0,614
426260,5,0,610
426276,1,0,311
426291,7,0,623
426307,4,0,380
426322,4,0,168
426338,1,0,229
426354,4,0,658
426369,6,0,288
426385,5,0,636
426401,8,0,619
426416,4,0,612
426432,2,0,547
426448,3,0,637
426463,3,0,471
426479,7,0,620
426495,9,0,539
426510,4,0,158
426526,4,0,574
426541,3,0,444
426557,6,0,586
426573,5,0,265
426589,5,0,590
426604,2,0,344
426620,1,0,503
426635,4,0,534
426651,4,0,614
426668,10,0,388
426682,5,0,615
426698,5,0,176
426714,2,0,290
426729,4,0,570
426745,3,0,197
426761,3,0,420
426776,7,0,642
426792,3,0,194
426807,5,0,392
426823,2,0,578
426840,11,0,404
426854,4,0,602
426870,8,0,264
426886,6,0,602
426901,5,0,213
426917,6,0,503
426932,3,0,81
426948,9,0,656
426964,5,0,339
426980,6,0,615
426995,9,0,613
427012,10,0,347
427026,9,0,617
427043,10,0,597
427058,2,0,618
427073,6,0,654
427089,5,0,629
427106,10,0,649
427120,4,0,674
427136,1,0,279
427152,2,0,369
427167,1,0,656
427183,3,0,103
427199,6,0,618
427215,11,0,642
427230,9,0,601
427246,6,0,614
427261,5,0,617
427277,8,0,589
427293,4,0,569
427308,3,0,352
427324,4,0,637
427339,7,0,504
427355,6,0,609
427371,7,0,557
427386,8,0,360
427402,6,0,470
427418,2,0,653
427433,6,0,573
427449,6,0,618
427465,4,0,383
427480,6,0,584
427496,2,0,586
427512,7,0,437
427527,4,0,610
427543,4,0,609
427558,6,0,578
427574,5,0,565
427590,5,0,548
427605,4,0,555
427621,9,0,398
427637,3,0,634
427652,6,0,629
427668,4,0,645
427684,5,0,612
427699,4,0,264
427715,5,0,435
427731,3,0,320
427746,4,0,357
427762,4,0,585
427777,3,0,320
427793,6,0,623
427809,9,0,616
427824,3,0,509
427840,7,0,620
427857,10,0,633
427871,7,0,606
427887,6,0,340
427903,3,0,633
427918,8,0,571
427934,6,0,571
427950,6,0,365
427965,6,0,350
427981,3,0,107
427996,4,0,204
428012,4,0,170
428028,5,0,385
428043,6,0,320
428059,4,0,626
428075,5,0,658
428090,6,0,624
428106,6,0,156
428122,6,0,618
428137,4,0,607
428153,4,0,157
428169,4,0,591
428184,6,0,616
428200,4,0,418
428215,6,0,592
428231,5,0,317
428247,6,0,429
428262,6,0,629
428279,10,0,451
428294,9,0,649
428309,7,0,600
428325,4,0,572
428341,5,0,313
428356,6,0,585
428373,10,0,485
428389,10,0,354
428403,1,0,549
428420,10,0,635
428435,5,0,587
428450,2,0,498
428466,5,0,643
428482,4,0,257
428497,6,0,661
428513,4,0,620
428528,6,0,627
428544,9,0,432
428560,4,0,300
428575,2,0,549
428591,5,0,638
428607,5,0,543
428622,7,0,620
428638,4,0,186
428654,5,0,595
428670,10,0,608
428685,4,0,577
428701,3,0,157
428715,3,0,82
428732,3,0,599
428747,5,0,600
428763,3,0,594
428779,7,0,174
428794,7,0,308
428810,5,0,566
428826,1,0,213
428842,6,0,599
428857,6,0,635
428873,2,0,605
428888,2,0,602
428904,4,0,583
428920,5,0,578
428935,3,0,269
428951,1,0,578
428966,6,0,559
428982,4,0,630
428998,3,0,577
429013,6,0,613
429029,9,0,613
429045,3,0,342
429060,3,0,478
429076,5,0,598
429092,9,0,506
429107,6,0,303
429123,1,0,585
429139,5,0,452
429154,3,0,162
429170,7,0,578
429185,9,0,582
429201,1,0,373
429217,4,0,630
429232,9,0,607
429248,7,0,601
429264,2,0,348
429279,1,0,593
429296,11,0,565
429311,4,0,498
429326,6,0,625
429342,7,0,612
429359,10,0,642
429373,3,0,284
429389,1,0,640
429405,3,0,245
429420,5,0,649
429436,6,0,580
429451,6,0,462
429467,6,0,626
429484,10,0,617
429498,2,0,592
429514,2,0,367
429530,7,0,411
429545,7,0,663
429561,6,0,589
429578,10,0,651
429592,5,0,689
429608,6,0,606
429624,4,0,614
429639,9,0,581
429655,9,0,609
429671,5,0,176
429686,6,0,624
429702,4,0,629
429717,4,0,628
429733,6,0,327
429749,7,0,393
429764,9,0,379
429780,7,0,626
429796,6,0,615
429811,9,0,607
429827,5,0,183
429843,5,0,239
429858,7,0,460
429874,4,0,363
429890,5,0,321
429905,6,0,600
429921,9,0,576
429936,7,0,620
429952,4,0,112
429968,5,0,303
429983,4,0,282
429999,3,0,440
430015,6,0,651
430030,5,0,560
430046,6,0,415
430062,6,0,601
430077,6,0,337
430093,9,0,586
430109,6,0,555
430124,8,0,569
430140,6,0,554
430155,9,0,587
430171,6,0,611
430187,2,0,371
430202,5,0,622
430218,5,0,603
430234,7,0,622
430249,3,0,523
430265,4,0,474
430281,2,0,356
430296,7,0,692
430312,5,0,193
430328,1,0,488
430343,6,0,595
430359,4,0,619
430374,5,0,336
430390,6,0,451
430406,4,0,159
430421,7,0,622
430437,5,0,583
430453,5,0,563
430468,3,0,427
430484,7,0,460
430500,4,0,596
430515,6,0,571
430531,4,0,561
430546,7,0,642
430562,7,0,463
430578,7,0,645
430593,6,0,211
430609,5,0,602
430625,9,0,591
430640,8,0,235
430656,7,0,399
430672,5,0,308
430687,4,0,506
430703,5,0,265
430719,4,0,527
430734,6,0,645
430750,6,0,590
430765,4,0,579
430781,6,0,219
430797,4,0,400
430812,7,0,633
430828,4,0,227
430844,6,0,490
430859,7,0,643
430875,5,0,278
430891,5,0,392
430906,5,0,597
430922,9,0,596
430938,4,0,391
430953,5,0,503
430969,5,0,600
430984,5,0,617
431000,5,0,574
431016,3,0,390
431031,6,0,186
431047,7,0,440
431063,3,0,388
431078,5,0,398
431094,9,0,485
431110,6,0,626
431125,6,0,416
431141,6,0,593
431158,10,0,611
431172,2,0,465
431188,6,0,624
431204,8,0,477
431219,2,0,617
431235,6,0,601
431250,5,0,555
431267,10,0,623
431282,5,0,423
431297,6,0,592
431314,10,0,582
431329,4,0,463
431344,6,0,615
431360,7,0,588
431376,7,0,346
431391,5,0,593
431407,6,0,624
431423,6,0,331
431438,6,0,591
431454,4,0,282
431470,7,0,649
431485,6,0,527
431501,4,0,154
431516,6,0,580
431532,6,0,245
431548,5,0,576
431563,9,0,294
431579,6,0,627
431595,2,0,363
431610,3,0,593
431626,2,0,611
431642,2,0,546
431657,3,0,626
431673,8,0,512
431689,7,0,598
431704,3,0,453
431720,6,0,614
431735,4,0,592
431752,10,0,620
431767,4,0,323
431782,6,0,601
431798,5,0,618
431814,6,0,628
431829,6,0,581
431845,4,0,171
431861,6,0,588
431876,5,0,271
431892,4,0,477
431908,5,0,134
431923,6,0,603
431939,1,0,370
431954,4,0,587
431971,10,0,481
431986,7,0,215
432001,8,0,513
432017,4,0,506
432033,6,0,610
432048,4,0,149
432064,6,0,595
432080,6,0,325
432095,4,0,217
432111,6,0,630
432127,8,0,602
432142,9,0,600
432158,6,0,609
432173,5,0,205
432189,3,0,584
432206,10,0,285
432220,6,0,534
432236,4,0,558
432252,9,0,580
432267,9,0,600
432283,5,0,581
432299,3,0,522
432314,7,0,617
432330,6,0,626
432346,6,0,434
432361,7,0,384
432377,6,0,589
432393,5,0,619
432408,2,0,553
432424,5,0,530
432439,7,0,393
432455,6,0,338
432471,7,0,596
432486,4,0,580
432502,4,0,605
432518,4,0,162
432533,5,0,593
432549,2,0,470
432565,6,0,630
432580,3,0,254
432596,7,0,618
432612,2,0,491
432627,5,0,619
432643,9,0,265
432658,3,0,166
432674,5,0,572
432690,5,0,411
432705,6,0,209
432721,2,0,260
432737,4,0,386
432752,4,0,638
432768,9,0,579
432784,2,0,557
432799,6,0,578
432815,3,0,467
432830,6,0,609
432846,4,0,512
432862,5,0,562
432877,6,0,593
432893,4,0,591
432909,9,0,584
432924,5,0,560
432940,5,0,334
432956,6,0,499
432971,6,0,329
432987,7,0,596
433003,9,0,585
433019,10,0,621
433034,8,0,479
433050,4,0,586
433065,6,0,574
433081,9,0,388
433096,6,0,566
433112,2,0,188
433128,6,0,588
433143,5,0,607
433159,4,0,559
433175,1,0,460
433190,7,0,617
433206,6,0,608
433222,5,0,633
433237,8,0,559
433254,10,0,576
433269,4,0,239
433284,3,0,605
433300,4,0,479
433316,3,0,383
433331,3,0,402
433347,5,0,185
433362,5,0,331
433378,5,0,607
433394,7,0,343
433409,4,0,489
433425,2,0,623
433441,5,0,248
433456,3,0,399
433473,10,0,602
433488,6,0,597
433503,2,0,645
433519,2,0,642
433535,4,0,143
433550,5,0,573
433566,6,0,576
433581,4,0,330
433597,6,0,559
433613,6,0,584
433628,4,0,552
433644,4,0,567
433660,6,0,475
433675,6,0,495
433691,4,0,632
433707,9,0,605
433722,6,0,565
433738,9,0,575
433754,2,0,140
433769,6,0,531
433785,2,0,581
433800,6,0,577
433816,5,0,585
433832,9,0,561
433847,2,0,339
433862,2,0,82
433879,4,0,621
433894,3,0,488
452653,2,0,68
725496,7
725507,339,398,586
725517,256,439,558
725528,295,431,520
725538,257,466,580
725548,292,423,272
725558,322,435,495
725568,317,420,572
725578,314,388,519
725588,353,393,534
725598,313,383,573
725608,265,386,539
725619,332,414,298
725629,322,419,584
725639,276,381,571
725649,567,413,582
725659,253,425,605
725669,242,387,602
725679,304,376,563
725689,319,416,519
725699,731,361,552
725709,298,409,602
725719,290,435,619
725729,276,438,532
725739,317,437,600
725749,339,444,570
725759,288,374,564
725769,305,402,606
725779,292,379,575
725789,359,406,586
725799,354,413,564
725809,320,385,430
725819,311,365,587
725829,334,375,599
725839,333,362,580
725849,329,389,248
725859,273,420,620
725869,289,438,580
725879,279,461,564
725889,262,418,539
725899,302,467,566
725909,263,399,612
725920,333,387,218
725930,345,450,571
725940,303,374,74
725950,335,470,451
725960,335,378,586
725970,312,434,624
725980,309,453,606
725990,244,417,587
726000,321,393,576
726010,285,408,596
726020,266,405,638
726032,273,399,402
726047,251,395,622
726063,243,395,590
726079,331,417,384
726095,291,429,571
726111,253,401,594
726126,326,406,573
726142,318,346,591
726158,351,385,572
726174,335,409,579
726190,327,379,369
726206,306,376,374
726221,302,399,419
726237,258,387,584
726253,283,413,519
726269,321,378,646
726284,251,399,81
726300,297,390,608
726316,305,377,603
726332,277,395,594
726348,260,420,587
726364,336,391,600
726380,258,361,607
726395,236,333,620
726411,236,368,184
726427,270,384,169
726443,206,358,576
726459,259,397,570
726474,236,371,596
726490,235,374,571
726506,739,375,556
726522,312,371,591
726538,252,344,592
726554,262,362,130
726569,227,380,628
726585,257,400,584
726601,259,350,610
726617,210,389,504
726633,259,403,573
726648,247,395,596
726664,271,394,301
726680,278,390,410
726696,269,425,598
726712,301,380,644
726728,259,382,637
726743,264,384,177
726759,277,371,630
726775,330,371,625
726791,272,377,223
726807,298,383,233
726823,260,396,683
726838,240,338,361
726854,230,367,326
726870,281,419,585
726886,247,367,611
726902,250,362,619
726917,250,406,556
726932,265,411,69
726949,323,421,581
726965,311,423,610
726981,249,409,609
726997,623,445,621
727012,289,404,612
727028,293,405,585
727044,286,364,620
727060,257,377,620
727076,320,407,223
727091,266,369,348
727107,295,371,603
727123,259,407,459
727139,330,422,559
727155,333,434,631
727171,342,447,567
727186,288,372,288
727202,328,422,576
727218,348,420,382
727234,340,404,583
727250,315,427,341
727265,264,410,587
727281,299,414,413
727297,265,418,594
727313,312,404,378
727329,288,415,574
727345,335,398,379
727360,264,463,583
727376,281,492,572
727392,333,436,275
727408,325,409,562
727424,316,366,566
727439,251,397,611
727455,659,475,584
727471,314,394,583
727487,308,394,566
727503,295,399,148
727519,297,409,523
727534,848,403,586
727550,312,388,593
727566,311,404,557
727582,350,388,554
727598,305,371,232
727613,350,373,615
727629,275,372,389
727645,324,388,614
727661,339,374,345
727677,314,411,581
727693,232,436,492
727708,328,401,449
727724,329,415,604
727740,301,434,431
727756,312,483,376
727772,265,446,553
727786,286,408,95
727803,290,443,588
727819,309,404,593
727835,290,414,568
727851,273,372,635
727867,336,450,568
727882,314,391,571
727933,820,422,580
727943,293,441,543
727953,288,443,582
727963,300,406,606
727973,254,424,622
727983,230,390,527
727994,293,377,572
728037,322,372,228
728047,319,386,601
728057,316,354,221
728067,317,388,579
728077,312,417,573
728088,283,365,635
728104,248,456,600
728120,297,479,568
728135,338,428,591
728151,366,400,119
728167,305,398,571
728271,258,434,396
728281,293,434,593
728291,258,405,626
728301,312,398,574
728311,288,375,594
728321,278,340,581
728331,288,398,153
728341,264,454,524
728351,255,380,167
728361,326,357,640
728371,291,366,6
728381,301,422,610
728391,283,408,388
728401,309,377,587
728411,315,335,595
728422,239,383,399
728436,251,380,433
728452,306,368,439
728468,291,380,521
728483,366,409,144
728499,311,413,276
728515,267,374,471
728531,291,380,363
728547,299,408,475
728563,308,369,609
728578,228,381,599
728594,218,374,591
728610,256,354,617
728626,248,367,597
728642,320,374,571
728657,305,456,164
728673,334,414,571
728689,270,389,576
728705,269,362,605
728721,315,354,569
728737,252,401,576
728752,278,360,122
728768,305,466,546
728784,261,389,570
728800,286,365,602
728816,289,382,610
728832,342,402,317
728847,360,422,591
728863,311,383,527
728879,325,410,489
728895,308,426,645
728911,313,392,554
728926,320,433,492
728942,289,429,602
728958,301,435,592
728974,332,358,597
728990,275,361,132
729006,318,431,622
729021,365,378,200
729037,318,329,571
729053,344,383,370
729069,305,373,579
729085,269,355,287
729101,343,341,654
729116,299,355,639
729132,320,397,397
729148,346,379,571
729164,281,349,600
729180,325,325,669
729195,344,434,642
729211,309,445,584
729227,368,457,604
729243,249,404,590
729259,264,430,503
729275,321,413,567
729290,218,418,306
729306,256,416,643
729322,280,430,602
729338,286,407,430
729354,310,403,622
729369,242,390,432
729385,269,401,367
729401,205,426,606
729417,278,374,556
729433,653,414,634
729449,296,361,633
729464,223,372,490
729480,348,381,606
729496,636,372,569
729512,759,355,330
729528,198,360,599
729543,771,380,402
729559,166,353,239
729575,653,359,619
729591,203,354,631
729607,222,357,615
729623,226,324,605
729638,268,282,243
729654,238,281,324
729670,231,319,597
729686,273,320,387
729702,243,274,198
729717,281,362,632
729733,240,318,618
729749,232,334,634
729765,201,303,593
729781,251,326,377
729797,234,295,561
729812,223,275,388
729828,263,331,607
729844,250,310,586
729860,221,307,577
729876,255,323,574
729891,241,301,547
729907,232,297,160
729923,220,345,649
729939,286,336,614
729955,260,292,608
729971,201,315,538
729986,261,290,578
730002,230,296,554
730018,227,311,272
730034,273,299,341
730050,241,290,627
730065,239,317,656
730081,350,321,624
730097,241,294,391
730113,229,284,628
730129,248,292,606
730145,188,322,350
730160,258,299,347
730176,215,255,623
730192,197,313,203
730208,210,294,626
730224,248,319,622
730240,228,301,556
730255,226,295,621
730271,205,272,577
730287,240,280,439
730303,223,288,586
730319,219,291,610
730334,245,324,453
730350,202,283,291
730366,229,264,135
730382,239,297,493
730398,232,264,630
730414,252,319,576
730429,343,527,436
730462,490,318,575
730472,463,359,64
730483,695,413,580
730495,384,289,523
730508,720,317,409
730524,277,318,556
730540,493,293,558
730556,548,346,584
730606,397,629,242
730616,276,350,663
730627,275,349,613
730637,241,299,294
730713,284,290,641
730723,270,320,601
730733,243,296,625
730743,245,262,574
730753,292,298,604
730763,226,351,589
730773,238,316,608
730784,238,309,263
730794,275,323,190
730804,248,314,311
730814,239,314,534
730825,235,340,623
730835,215,347,527
730845,249,312,576
730856,292,320,552
730872,272,365,548
730888,274,343,532
730904,228,320,617
730920,263,342,645
730936,281,279,516
730951,244,353,618
730967,233,379,604
730983,288,331,572
730999,255,297,608
731015,256,325,604
731031,248,277,520
731046,210,301,647
731062,270,336,623
731078,236,316,580
731094,252,354,567
731110,267,336,579
731125,239,280,406
731141,288,320,588
731157,236,324,622
731173,242,329,585
731189,256,304,349
731205,215,278,238
731220,221,319,536
731236,232,328,599
731252,236,347,646
731268,226,315,204
731284,260,296,617
731299,228,328,628
731315,243,279,608
731331,240,763,416
731347,205,279,343
731363,242,274,650
731379,256,273,660
731394,246,281,655
731410,215,242,548
731426,240,322,659
731442,642,337,150
731458,734,279,616
731474,205,283,596
731489,702,323,606
731505,789,312,174
731521,238,314,372
731537,242,292,604
731553,378,363,605
731568,206,340,550
731584,249,301,577
731600,224,297,562
731616,204,287,570
731632,251,287,467
731648,195,321,405
731663,214,236,155
731679,204,307,281
731695,231,295,297
731711,248,290,434
731727,248,371,644
731742,189,233,613
731758,227,229,667
731774,192,325,265
731790,219,300,284
731806,221,308,501
731820,206,325,62
731837,248,308,495
731853,253,288,261
731869,212,305,589
731885,218,281,120
731901,245,289,208
731916,290,320,371
731932,234,260,641
731948,238,282,560
731964,225,311,354
731980,208,577,654
731995,196,283,655
732011,191,268,579
732027,206,309,584
732043,234,361,605
732059,256,309,564
732075,243,274,616
732090,232,298,617
732106,250,302,627
732122,226,330,361
732138,260,296,605
732154,219,277,383
732170,244,284,412
732185,224,334,622
732201,269,317,432
732217,224,285,611
732232,304,320,77
732249,299,338,591
732264,273,342,589
732280,305,329,627
732296,317,382,144
732312,217,385,597
732328,280,453,601
732344,310,313,192
732359,284,309,616
732375,272,467,586
732391,282,351,608
732407,257,358,605
732423,272,335,617
732438,294,308,670
732454,337,302,653
732470,330,331,660
732486,411,289,343
732502,311,303,625
732518,321,266,312
732533,328,269,361
732549,326,267,531
732565,335,312,584
732581,344,343,545
732597,355,311,613
732612,348,237,509
732628,310,292,641
732644,291,291,602
732660,342,269,650
732676,293,281,500
732692,355,343,356
732707,289,226,470
732723,323,293,574
732739,361,282,573
732755,367,301,239
732771,325,348,370
732786,343,278,656
732802,356,342,512
732818,341,254,345
732834,315,270,623
732850,297,407,615
732866,363,278,679
732881,345,277,616
732921,366,233,583
732931,309,280,398
732941,323,272,331
732951,308,277,629
732961,316,294,594
732977,275,280,514
732992,278,307,675
733008,288,292,430
733024,290,310,619
733065,308,345,613
733075,254,309,517
733085,275,265,591
733095,247,304,583
733105,247,290,258
733119,228,265,612
733135,258,287,592
733200,263,289,593
733210,271,258,582
733220,299,333,218
733230,299,229,567
733240,305,331,610
733250,336,295,606
733260,282,291,615
733270,283,254,684
733280,295,266,624
733293,254,283,175
733309,244,271,617
733324,247,219,368
733340,227,315,283
733356,260,248,633
733372,295,248,562
733388,305,264,521
733404,322,268,602
733419,281,263,186
733435,269,416,627
733451,261,538,609
733467,306,243,505
733483,281,239,251
733498,279,287,651
733514,306,749,620
733530,372,226,589
733546,285,234,607
733562,263,431,246
733578,260,400,497
733593,309,267,449
733609,319,253,633
733625,304,283,354
733641,309,256,599
733657,291,256,642
733672,278,245,233
733688,250,272,172
733704,292,543,630
733720,317,276,578
733736,264,246,285
733752,281,248,469
733767,337,300,575
733783,311,264,541
733799,323,277,573
733815,312,266,651
733831,302,718,625
733847,299,290,162
733862,310,323,327
733878,350,309,558
733894,354,246,590
733910,356,288,603
733926,350,284,156
733941,347,278,651
733957,330,296,634
733973,324,281,614
733989,322,283,598
734005,326,255,626
734021,326,256,624
734036,292,533,345
734052,289,277,586
734068,344,258,664
734084,312,283,625
734100,302,333,409
734115,344,257,542
734131,331,304,638
734147,341,292,652
734163,315,277,438
734179,307,274,573
734195,292,338,589
734210,318,242,602
734226,313,213,637
734242,318,516,615
734258,296,268,605
734274,333,265,630
734289,298,255,566
734305,299,271,663
734321,330,260,365
734337,338,305,623
734353,327,293,393
734369,330,435,649
734384,316,298,197
734400,284,240,559
734416,319,250,507
734432,320,252,618
734448,290,277,413
734463,324,293,236
734479,297,268,595
734495,288,315,583
734511,317,283,114
734527,293,283,578
734543,295,324,648
734558,331,288,623
734574,338,309,408
734590,340,268,172
734606,313,752,636
734622,275,283,415
734637,297,217,617
734653,314,266,403
734669,314,588,311
734685,298,316,585
734701,324,262,592
734717,318,244,546
734732,323,204,672
734748,310,240,516
734764,326,281,650
734779,280,264,26
734796,344,291,619
734811,309,280,589
734827,302,250,299
734843,288,275,620
734859,334,290,440
734875,302,231,490
734891,320,280,577
734906,290,248,396
734922,337,272,170
734938,324,338,632
734954,310,268,614
734970,323,299,560
734986,315,303,572
735001,338,269,601
735017,296,260,408
735033,323,299,297
735049,288,237,665
735065,318,292,555
735080,309,249,375
735096,297,244,608
735112,304,290,622
735128,323,299,562
735144,288,252,582
735160,265,233,594
735175,290,263,641
735191,309,245,321
735207,285,269,586
735223,329,261,587
735239,480,280,580
735254,322,304,192
735270,305,255,245
735286,234,223,602
735302,327,275,479
735318,320,275,617
735334,296,267,619
735349,320,256,359
735365,282,228,591
735379,299,259,8
735397,317,318,648
735413,305,280,354
735428,324,291,446
735444,295,295,601
735460,310,240,625
735542,302,263,607
735552,269,280,555
735563,283,259,240
735573,304,273,566
735583,269,272,358
735593,310,235,213
735603,318,459,624
735613,302,257,174
735623,314,370,626
735633,315,235,518
735643,283,225,493
735653,297,262,578
735666,311,198,665
735681,321,241,485
735697,292,235,597
735713,311,209,462
735729,312,250,623
735770,295,294,619
735780,307,277,599
735790,279,287,601
735800,271,265,578
735810,322,305,263
735823,304,321,41
735840,325,279,610
735855,305,286,600
735872,314,351,637
735887,318,288,437
735903,295,516,243
735997,290,342,652
736007,258,313,596
736017,254,311,378
736027,214,347,275
736037,229,306,308
736047,269,344,382
736060,289,381,607
736070,277,360,584
736080,265,412,555
736090,237,329,578
736100,204,340,371
736110,187,380,577
736120,228,345,663
736130,242,298,173
736140,197,298,584
736156,261,365,583
736172,188,381,570
736188,253,320,594
736204,212,332,359
736219,173,336,244
736235,206,272,553
736251,193,308,589
736267,226,317,562
736283,221,300,486
736298,194,329,580
736314,230,320,578
736330,161,288,578
736346,767,293,560
736362,183,340,597
736378,200,325,597
736393,165,272,583
736409,147,272,578
736425,191,302,587
736441,185,351,575
736457,163,290,397
736472,702,320,594
736488,131,304,536
736504,305,326,292
736520,146,331,578
736536,196,305,595
736552,456,313,577
736567,374,354,587
736583,149,329,410
736599,186,327,614
736615,176,288,608
736631,295,317,626
736647,188,298,278
736662,161,285,608
736678,141,336,437
736694,139,335,609
736710,205,286,597
736726,358,319,593
736741,168,339,553
736757,162,326,645
736773,175,324,369
736789,167,340,593
736805,146,329,597
736821,172,298,579
736836,189,301,589
736852,195,362,597
736868,219,305,427
736884,242,476,666
736900,471,292,584
736916,514,293,217
736931,138,297,595
736947,166,351,164
736963,713,329,551
736979,157,333,592
736995,203,310,590
737010,179,294,644
737026,207,300,225
737042,248,302,597
737058,177,334,597
737074,184,291,569
737090,201,316,600
737105,189,328,592
737121,130,299,605
737137,144,310,414
737153,117,339,252
737169,247,312,601
737184,158,323,656
737200,545,762,588
737216,154,323,378
737232,187,290,593
737248,164,296,585
737264,128,261,536
737279,152,286,630
737295,106,293,589
737311,151,336,604
737327,154,303,605
737343,159,329,401
737359,218,521,567
737374,149,301,574
737390,186,313,578
737406,150,313,588
737422,209,336,577
737438,157,299,449
737453,132,297,555
737469,126,326,544
737485,632,296,563
737501,180,303,480
737517,203,311,580
737533,139,329,396
737548,161,348,320
737564,139,341,613
737580,168,291,614
737596,159,311,134
737612,150,294,362
737628,209,335,567
737643,169,292,604
737659,432,358,422
737675,757,329,328
737691,166,301,276
737707,170,337,590
737722,198,308,478
737738,139,286,162
737754,128,302,581
737770,135,335,609
737786,161,286,526
737802,137,305,599
737817,142,331,577
737833,304,266,591
737849,172,314,147
737865,170,296,639
737881,209,287,578
737897,548,281,582
737912,134,326,620
737928,208,298,592
737944,232,282,604
737960,213,253,638
737976,503,281,185
737991,264,260,329
738007,804,241,631
738023,205,256,276
738039,188,257,609
738055,159,282,348
738071,513,337,574
738086,219,307,572
738102,198,321,551
738118,243,285,610
738178,227,263,474
738188,294,286,553
738198,250,268,416
738208,227,267,436
738218,210,283,92
738253,269,298,317
738263,243,268,587
738273,223,274,537
738283,191,299,217
738293,163,283,604
738389,235,281,604
738399,232,293,563
738409,230,275,616
738419,229,279,219
738429,229,570,554
738440,238,369,587
738450,183,330,575
738461,159,216,587
738472,294,268,445
738485,380,256,569
738496,320,256,584
738507,430,301,585
738518,231,278,607
738528,760,288,404
738538,183,264,575
738548,580,253,583
738558,168,236,604
738568,192,539,488
738578,188,403,418
738593,147,271,608
738608,188,238,346
738624,191,219,273
738640,204,226,590
738656,652,728,116
738671,196,221,96
738687,262,241,588
738703,184,266,572
738719,197,237,610
738735,188,269,269
738751,206,258,572
738767,200,581,283
738782,200,210,607
738798,182,290,586
738814,192,264,539
738830,153,273,561
738846,176,227,482
738861,188,254,505
738877,201,231,584
738893,191,229,558
738909,174,291,606
738925,186,256,592
738941,161,252,590
738956,177,363,418
738972,170,294,408
738988,207,249,583
739004,153,256,569
739020,187,227,594
739036,190,350,311
739051,161,273,591
739067,585,247,582
739083,186,261,517
739099,171,259,156
739115,157,258,177
739130,164,295,591
739146,151,263,287
739162,161,243,628
739178,164,280,163
739194,173,453,572
739210,167,215,581
739225,209,283,568
739241,200,265,379
739257,170,271,542
739273,168,231,617
739289,160,241,596
739305,173,249,587
739320,187,218,547
739336,160,284,662
739352,200,256,650
739368,199,248,600
739384,204,240,639
739399,211,258,310
739415,181,246,475
739431,148,263,358
739447,247,527,600
739463,181,262,593
739478,729,352,594
739494,182,278,588
739510,183,256,376
739526,207,268,575
739542,258,255,598
739558,651,226,595
739573,194,479,568
739589,203,198,157
739605,216,255,572
739621,169,240,587
739637,211,248,591
739653,750,474,474
739668,194,205,444
739684,216,246,575
739700,175,261,555
739716,211,232,596
739732,197,257,599
739747,163,244,609
739763,230,325,217
739779,209,257,590
739795,228,274,663
739811,174,244,656
739827,196,236,588
739842,233,294,618
739858,202,268,578
739874,217,253,623
739890,198,253,245
739906,187,243,311
739921,222,268,497
739938,280,255,557
739953,190,246,623
739969,171,254,325
739985,206,266,628
740001,212,243,586
740016,216,239,598
740032,215,292,603
740048,182,235,334
740064,205,216,589
740080,188,271,323
740096,199,249,155
740111,209,221,621
740127,193,254,497
740143,217,246,268
740159,185,234,425
740175,188,238,449
740190,232,276,516
740206,711,294,234
740222,187,227,605
740238,215,343,611
740254,173,238,600
740270,195,208,378
740285,149,363,611
740301,195,236,498
740317,172,263,469
740333,196,237,573
740349,730,514,611
740364,202,270,574
740380,181,270,575
740396,217,257,635
740412,276,227,633
740428,370,250,604
740444,588,249,569
740459,177,290,598
740475,360,454,589
740491,198,264,554
740507,185,224,604
740523,149,272,314
740538,192,219,111
740554,212,225,221
740570,185,274,570
740586,168,262,578
740651,198,250,592
740661,202,227,557
740671,150,226,551
740681,192,202,586
740691,196,237,584
740701,190,273,593
740711,163,243,375
740721,186,246,579
740731,168,243,582
740744,171,239,618
740760,173,276,403
740776,153,256,323
740811,139,247,551
740821,159,249,616
740831,146,251,530
740841,152,307,585
740855,135,293,588
740871,176,267,589
740886,169,253,328
740902,186,225,589
740918,202,246,561
740990,184,267,563
741000,153,258,548
741010,175,256,294
741020,186,244,606
741030,136,249,485
741040,155,234,463
741050,156,229,569
741060,171,276,91
741070,175,337,608
741080,157,311,107
741092,154,250,586
741107,137,262,93
741124,220,291,586
741140,162,285,558
741155,191,263,337
741171,142,284,540
741187,149,278,363
741203,136,243,142
741219,152,229,602
741234,722,260,593
741250,180,235,477
741266,196,271,359
741282,191,253,574
741298,162,245,292
741314,178,260,571
741329,164,257,478
741345,171,268,172
741361,191,263,596
741377,179,283,563
741393,205,250,665
741408,165,339,169
741424,173,264,530
741440,197,555,590
741456,233,255,618
741472,169,486,601
741488,268,268,607
741503,165,263,593
741519,307,264,386
741535,165,304,594
741551,738,280,612
741567,240,687,558
741582,174,269,542
741598,168,285,577
741614,162,242,426
741630,188,247,642
741646,159,220,298
741662,179,307,192
741677,192,273,548
741693,163,243,602
741709,185,275,551
741725,147,278,521
741741,171,267,392
741756,183,273,638
741772,167,287,349
741788,211,293,489
741804,202,296,585
741820,193,287,662
741836,596,286,593
741851,172,251,451
741867,208,267,551
741883,191,264,149
741899,206,311,594
741915,198,285,414
741930,224,288,595
741946,203,273,155
741962,199,280,603
741978,225,302,408
741994,196,254,593
742010,204,224,547
742025,181,254,621
742041,198,260,533
742057,191,283,568
742073,193,237,278
742089,205,293,585
742104,191,274,595
742120,160,271,466
742136,189,293,321
742152,195,283,593
742168,192,294,190
742184,214,286,586
742199,178,273,588
742215,216,268,616
742231,189,311,593
742247,186,281,406
742263,254,297,207
742278,218,325,619
742294,204,304,616
742310,179,305,583
742326,210,231,483
742342,226,304,509
742358,182,332,574
742373,190,305,599
742389,181,317,179
742405,206,322,122
742421,196,307,617
742437,778,300,652
742453,354,328,510
742468,383,295,301
742484,204,312,276
742500,245,353,634
742516,241,315,508
742532,786,300,576
742547,213,242,577
742563,308,282,513
742579,248,335,292
742594,219,266,77
742611,296,287,576
742627,246,291,615
742642,241,293,336
742658,259,284,534
742674,258,303,582
742690,205,336,573
742706,247,317,585
742721,268,301,297
742737,236,267,589
742753,241,278,545
742769,250,283,382
742785,243,334,476
742801,255,312,582
742816,261,314,462
742831,220,278,82
742848,292,293,337
742864,241,267,600
742879,238,293,13
742895,264,294,616
742911,177,247,594
742927,203,245,569
742943,213,260,612
742959,183,259,583
742974,218,256,629
742990,205,295,591
743006,190,269,552
743022,193,223,457
743038,168,250,625
743054,215,236,560
743069,209,187,360
743085,218,224,464
743101,180,232,315
743117,203,264,274
743133,216,391,228
743148,202,238,531
743164,202,240,568
743180,234,284,560
743196,178,266,441
743212,170,267,567
743228,142,226,607
743243,174,245,607
743259,158,260,570
743275,209,209,549
743291,203,228,561
743307,231,716,617
743322,175,257,249
743338,204,230,567
743354,170,242,603
743370,175,230,329
743386,179,333,598
743402,147,272,586
743417,202,214,359
743498,192,196,593
743509,262,306,588
743519,501,274,626
743530,523,451,516
743540,350,232,584
743550,275,210,554
743561,323,321,588
743571,154,451,220
743581,686,374,567
743591,137,251,560
743601,160,218,600
743611,185,233,568
743623,179,239,579
743639,162,200,580
743655,158,236,557
743702,157,272,483
743712,168,240,598
743722,169,231,507
743732,160,262,461
743742,152,226,442
743752,180,203,579
743765,167,234,247
743781,156,224,609
743797,166,298,584
743813,140,241,572
743923,160,222,559
743933,168,220,560
743943,157,366,582
743953,166,354,600
743963,179,223,425
743973,153,327,403
743983,150,238,373
743993,145,220,277
744003,175,245,589
744013,194,278,569
744025,181,434,633
744035,175,249,604
744045,204,718,295
744055,159,225,619
744065,140,376,591
744075,234,320,556
744085,225,236,592
744098,159,196,372
744113,154,315,559
744129,166,251,580
744145,182,262,612
744161,181,251,161
744177,191,229,468
744193,191,233,555
744208,174,234,521
744224,144,245,562
744240,104,249,597
744256,111,256,593
744272,206,261,492
744287,110,251,594
744303,155,288,596
744319,281,463,585
744335,134,249,617
744351,148,283,523
744367,132,294,555
744382,141,253,562
744398,147,247,293
744414,103,280,489
744430,416,298,389
744446,294,388,578
744462,307,252,571
744476,79,260,514
744493,405,295,326
744509,147,277,610
744525,465,543,601
744541,209,236,195
744556,651,234,333
744572,150,529,602
744588,179,244,592
744604,227,263,594
744620,152,211,536
744635,683,237,512
744651,232,232,268
744667,209,245,552
744683,178,387,594
744699,200,237,577
744715,208,236,632
744730,203,261,596
744746,228,249,579
744762,208,259,461
744778,186,245,625
744794,504,236,175
744810,143,246,565
744825,716,248,567
744841,608,294,437
744857,142,276,264
744873,139,236,575
744889,138,231,327
744904,110,238,585
744920,106,258,588
744936,113,237,475
744952,106,235,337
744967,90,307,590
744984,117,288,566
744998,75,262,246
745015,175,258,573
745031,175,265,140
745047,206,245,601
745063,204,218,176
745078,212,258,589
745094,170,247,604
745110,175,243,455
745126,167,278,557
745142,194,266,567
745157,197,251,588
745172,203,254,54
745189,187,587,611
745205,153,232,571
745221,161,296,600
745237,183,253,162
745252,210,216,583
745268,179,386,559
745284,119,191,294
745300,717,247,568
745316,152,283,463
745331,157,353,584
745347,523,245,539
745363,115,226,548
745379,175,223,584
745395,135,243,573
745410,142,242,69
745426,163,389,602
745442,178,236,605
745458,721,510,576
745474,638,281,545
745490,167,228,626
745505,753,597,565
745521,181,690,590
745537,162,566,374
745553,184,215,378
745569,340,743,335
745585,137,201,626
745600,143,186,617
745616,158,486,576
745632,411,216,557
745648,149,319,585
745664,182,332,531
745679,149,236,322
745695,157,256,178
745711,157,228,582
745727,158,248,588
745743,160,267,386
745759,242,354,587
745774,230,272,617
745790,297,245,600
745806,164,255,493
745822,204,234,638
745838,194,256,622
745853,187,591,603
745869,179,280,594
745885,182,274,616
745901,157,257,626
745917,244,245,590
745933,182,285,596
745948,150,224,553
745964,130,253,377
745980,248,221,512
745996,166,248,391
746012,536,354,100
746027,398,259,457
746043,181,317,586
746059,212,434,577
746075,135,209,407
746091,160,245,602
746157,186,254,589
746167,157,239,607
746177,156,213,597
746187,132,179,566
746197,142,274,621
746207,152,221,575
746217,165,224,563
746227,152,256,368
746271,176,235,583
746282,168,265,623
746292,548,430,570
746303,129,534,360
746370,153,220,632
746380,181,273,295
746390,129,245,280
746400,173,295,571
746410,147,220,583
746420,321,298,590
746432,168,248,463
746442,210,243,299
746455,175,250,584
746465,208,631,552
746477,170,214,573
746487,435,296,586
746498,171,345,563
746508,128,217,576
746518,156,297,592
746534,478,617,511
746549,656,493,593
746565,207,229,569
746581,631,218,243
746597,271,547,553
746613,129,230,533
746629,152,229,311
746644,145,591,607
746660,156,200,634
746676,137,241,600
746692,167,251,535
746708,152,244,504
746724,151,214,582
746739,165,214,312
746754,172,224,53
746771,225,245,385
746787,389,697,604
746803,168,242,559
746818,162,243,281
746834,294,262,338
746850,208,214,603
746866,160,239,628
746882,173,669,140
746897,158,275,388
746913,169,250,649
746929,179,233,333
746945,196,252,582
746961,196,281,147
746977,177,264,240
746992,208,250,389
747008,245,280,627
747024,234,308,605
747040,198,484,595
747056,144,249,329
747072,239,362,335
747087,165,244,585
747103,151,325,598
747119,172,249,481
747135,145,229,620
747151,175,267,294
747166,185,284,595
747182,230,267,293
747198,218,312,577
747214,199,254,595
747230,196,275,602
747246,192,290,559
747261,145,294,568
747277,169,304,624
747293,162,275,645
747309,210,290,633
747325,173,243,631
747340,193,268,570
747356,152,217,292
747372,135,235,293
747388,163,277,122
747404,154,241,310
747420,135,214,578
747435,383,753,579
747451,147,205,479
747467,701,250,571
747483,256,260,579
747499,166,208,603
747514,189,173,584
747530,146,281,381
747546,257,282,580
747562,617,305,595
747578,122,240,586
747594,132,236,573
747609,131,329,533
747625,340,206,576
747641,137,205,550
747657,144,220,601
747673,151,249,584
747688,159,224,380
747704,147,217,571
747720,126,242,592
747736,113,224,591
747752,129,281,574
747768,168,255,543
747783,147,264,208
747799,167,282,579
747815,150,266,586
747831,162,264,587
747847,158,203,507
747862,173,249,603
747878,244,416,598
747894,191,253,590
747910,207,234,562
747926,184,283,224
747942,155,290,589
747957,206,273,609
747973,195,278,563
747989,183,274,600
748005,176,254,341
748021,360,266,556
748037,177,466,636
748052,347,269,632
748068,239,299,345
748084,235,249,622
748100,221,243,589
748116,184,365,581
748131,163,196,580
748147,211,267,573
748163,146,233,593
748179,498,475,596
748195,208,223,568
748211,204,240,565
748226,254,277,582
748242,253,301,250
748258,271,265,590
748274,236,350,615
748290,230,232,632
748306,173,233,464
748321,454,665,600
748337,177,213,586
748353,160,287,580
748369,178,514,595
748385,146,241,576
748400,156,263,604
748416,187,249,458
748432,193,313,569
748448,161,425,565
748464,177,236,582
748480,211,319,228
748495,296,258,582
748511,616,256,565
748527,712,251,593
748543,584,688,253
748559,179,282,617
748574,289,247,602
748590,186,227,223
748606,211,224,601
748622,208,228,472
748638,416,210,606
748654,161,236,565
748694,165,217,585
748704,202,287,544
748714,425,314,374
748724,170,258,574
748734,167,237,568
748790,196,227,526
748800,160,242,591
748810,170,395,518
748820,214,220,502
748830,179,208,477
748928,191,256,483
748938,176,249,344
748948,180,247,443
748958,189,242,591
748968,201,262,569
748978,183,211,585
748988,188,745,506
748999,203,279,606
749009,226,311,577
749019,232,230,596
749029,197,289,361
749039,190,253,563
749050,188,453,603
749060,226,273,410
749070,231,280,564
749080,244,272,593
749090,233,226,288
749100,217,273,556
749112,253,262,400
749128,247,288,533
749144,215,289,161
749160,204,238,565
749176,183,213,289
749191,252,307,616
749207,192,465,500
749223,209,275,608
749239,225,306,521
749255,231,315,233
749270,277,279,594
749286,232,317,593
749302,224,276,422
749318,202,307,606
749334,265,281,576
749350,237,288,557
749365,229,300,417
749381,201,296,589
749397,230,347,601
749413,417,252,573
749429,448,243,622
749445,177,262,613
749460,281,251,616
749476,197,377,581
749492,293,245,441
749508,211,468,600
749524,658,254,534
749539,188,250,357
749555,189,459,245
749571,470,474,405
749587,200,238,597
749603,203,267,211
749619,153,322,452
749634,170,205,565
749650,146,241,201
749666,191,243,587
749682,178,231,470
749698,175,190,612
749713,160,251,547
749729,190,216,635
749745,145,234,592
749761,147,218,588
749777,159,227,400
749793,160,265,386
749808,149,355,587
749824,373,311,543
749840,612,241,350
749856,158,254,256
749872,183,414,601
749887,187,245,519
749903,159,262,559
749919,158,228,525
749935,186,280,660
749951,164,234,622
749967,227,233,605
749982,218,301,530
749998,186,243,568
750014,230,750,557
750030,195,253,586
750046,224,279,566
750061,213,233,596
750077,221,286,581
750093,436,253,599
750109,166,372,508
750125,167,227,298
750141,175,276,606
750156,737,226,589
750172,204,256,621
750188,289,268,601
750204,195,278,585
750220,243,276,577
750236,195,290,587
750251,220,255,238
750267,182,270,136
750283,164,242,421
750299,208,251,277
750315,292,273,579
750330,255,272,283
750346,370,226,549
750362,195,219,370
750378,186,313,597
750394,306,221,343
750410,468,214,491
750425,164,253,534
750441,644,218,576
750457,195,204,214
750473,472,374,587
750489,489,334,573
750504,178,283,524
750520,201,235,594
750536,324,294,596
750552,216,199,454
750568,156,469,572
750584,662,428,323
750599,345,232,580
750615,683,687,101
750631,300,372,575
750647,210,213,566
750663,145,219,537
750679,147,614,338
750694,223,246,570
750710,167,385,610
750726,339,229,576
750742,433,406,553
750758,133,250,258
750773,148,416,302
750789,164,289,528
750805,165,260,597
750821,551,256,555
750837,171,241,349
750853,342,266,589
750868,185,202,556
750884,234,266,554
750900,178,310,573
750916,176,383,348
750932,259,273,590
750947,267,271,601
750963,192,252,591
750979,567,272,623
750995,573,245,412
751011,185,268,573
751027,144,264,571
751042,323,281,592
751058,740,562,573
751074,195,228,585
751090,201,229,603
751106,254,231,572
751121,160,374,344
751137,177,260,573
751153,179,255,623
751169,184,275,408
751185,191,249,228
751201,176,215,583
751216,153,242,599
751232,132,580,527
751248,129,230,564
751264,137,264,610
751280,153,264,588
751296,177,262,346
751371,187,235,569
751381,367,204,486
751391,239,299,440
751401,523,264,214
751412,337,296,577
751423,183,254,467
751433,189,206,595
751516,177,395,579
751526,232,425,571
751537,150,519,565
751547,314,250,566
751558,422,334,571
751568,261,406,279
751578,465,265,562
751749,305,247,554
751759,359,188,565
751769,348,336,544
751779,263,278,590
751789,163,239,576
751799,650,433,575
751809,321,419,589
751819,168,239,457
751831,112,317,535
751841,137,260,556
751851,136,230,572
751862,134,226,578
751872,156,220,458
751882,628,263,400
751892,421,309,608
751902,170,304,605
751912,295,241,581
751922,209,683,575
751932,280,253,321
751942,198,261,593
751952,186,285,587
751962,205,241,600
751972,213,286,601
751982,200,254,569
751992,716,251,557
752002,524,325,558
752012,176,229,569
752022,128,266,613
752032,199,332,408
752042,191,342,598
752052,224,660,573
752062,156,250,570
752072,200,297,585
752082,202,306,523
752092,200,285,549
752102,177,307,593
752112,202,252,590
752122,157,286,266
752134,180,267,615
752150,235,261,379
752166,245,269,562
752181,456,294,473
752197,216,448,604
752213,200,244,593
752229,186,227,214
752245,176,233,605
752260,738,301,564
752276,403,292,589
752292,181,236,572
752308,192,354,304
752324,192,275,595
752340,260,263,592
752355,228,392,569
752371,114,569,562
752387,278,272,583
752403,699,273,592
752419,310,592,591
752435,620,294,570
752450,486,220,560
752466,315,484,594
752482,655,666,601
752498,189,378,557
752514,504,436,568
752529,356,403,548
752545,376,389,324
752561,415,551,562
752577,218,385,453
752593,166,377,588
752609,166,255,584
752624,285,399,559
752640,138,645,453
752656,251,261,338
752672,140,266,241
752688,162,292,600
752704,162,246,259
752719,104,221,559
752735,147,245,557
752751,146,255,499
752767,228,381,579
752783,138,250,431
752798,187,248,585
752814,371,315,323
752830,185,252,200
752846,181,230,358
752862,160,203,407
752878,256,269,313
752893,225,262,554
752909,223,287,295
752925,208,503,568
752941,297,250,574
752957,115,296,558
752972,681,301,520
752988,188,674,544
753004,112,232,569
753020,513,206,546
753036,119,695,543
753052,551,291,556
753067,270,620,548
753083,146,239,577
753099,137,187,556
753115,154,335,563
753131,138,617,550
753147,127,445,550
753162,438,211,565
753178,154,253,562
753194,183,219,443
753210,170,309,559
753226,688,367,547
753241,228,287,551
753257,312,329,566
753273,217,273,571
753289,181,276,576
753305,682,270,569
753321,150,205,592
753336,336,357,562
753352,169,213,564
753368,178,219,569
753384,337,309,578
753400,725,290,365
753416,116,278,230
753431,707,740,278
753447,114,233,499
753463,116,311,413
753479,374,524,572
753495,153,514,423
753510,550,711,581
753526,274,570,574
753542,319,474,568
753558,178,302,576
753574,552,232,550
753590,256,283,243
753605,280,368,210
753621,304,362,342
753637,306,384,565
753653,485,523,557
753669,249,263,538
753685,238,327,555
753700,243,437,552
753716,654,240,300
753732,159,265,544
753748,128,271,360
753764,272,254,560
753779,259,276,554
753795,429,436,563
753811,144,238,551
753827,133,262,548
753843,156,440,550
753859,140,231,559
753874,172,706,569
753890,157,242,457
753940,235,584,532
753950,183,373,557
753960,705,275,508
753970,337,269,541
753980,191,311,399
753990,222,284,563
754001,230,796,348
754037,241,395,576
754047,254,327,567
754057,267,350,526
754067,273,248,556
754080,266,244,554
754096,244,290,556
754112,266,314,546
754128,264,276,556
754143,257,231,545
754159,188,266,563
754311,185,270,554
754321,188,293,467
754331,198,216,338
754341,245,233,569
754351,249,308,565
754361,196,245,558
754371,164,241,563
754381,163,242,558
754391,169,305,540
754401,214,222,342
754411,306,314,547
754421,272,324,543
754432,244,352,529
754442,241,273,528
754453,258,280,377
754463,290,328,540
754473,311,326,378
754484,198,317,528
754494,656,779,538
754505,503,547,497
754515,446,309,563
754525,129,413,564
754537,283,469,556
754547,220,185,573
754558,376,330,472
754571,574,412,577
754586,294,302,552
754602,466,282,193
754618,135,352,489
754634,186,292,537
754650,256,237,493
754666,231,267,567
754681,257,261,583
754697,292,312,279
754713,296,320,561
754729,265,325,546
754745,247,309,556
754760,262,602,492
754776,327,294,560
754792,303,377,377
754808,283,320,555
754824,227,286,547
754840,211,298,552
754855,209,297,544
754871,222,276,437
754887,184,237,564
754903,148,251,543
754919,153,246,552
754934,187,199,488
754950,252,255,545
754966,176,232,548
754982,178,233,535
754998,697,686,560
755014,158,228,360
755029,214,296,540
755045,246,272,562
755061,207,407,551
755077,227,274,449
755093,282,339,544
755108,296,828,286
755124,286,331,559
755140,276,506,552
755156,253,299,537
755172,232,324,546
755188,461,563,553
755203,153,267,533
755219,688,238,544
755235,176,218,546
755251,185,230,560
755267,157,236,395
755283,158,385,564
755298,530,241,530
755314,267,227,541
755330,172,249,569
755346,131,400,537
755362,159,263,532
755377,557,332,536
755393,182,263,543
755409,470,307,360
755425,563,335,537
755441,284,429,548
755457,368,432,571
755472,360,293,492
755488,368,567,546
755504,246,601,562
755520,274,458,539
755536,606,334,567
755551,365,274,273
755567,197,292,577
755583,173,301,547
755599,181,382,534
755615,176,296,547
755631,754,297,437
755646,177,256,383
755662,211,286,564
755678,207,246,325
755694,161,385,580
755710,239,548,534
755725,211,213,400
755741,248,263,376
755757,617,300,543
755773,264,454,560
755789,259,402,220
755805,278,564,552
755820,274,252,510
755836,257,297,528
755852,279,328,353
755868,310,305,560
755884,248,386,536
755899,532,444,530
755915,164,339,539
755931,139,474,545
755947,188,230,242
755963,243,273,543
755979,646,275,552
755994,396,679,544
756010,166,314,560
756026,449,344,553
756042,154,325,565
756058,173,210,573
756073,246,273,440
756089,290,334,360
756105,376,344,609
756121,444,453,363
756137,395,481,218
756153,349,380,106
756168,447,480,589
756184,439,357,568
756200,484,470,584
756216,412,435,568
756232,418,497,628
756248,445,485,437
756263,357,432,323
756279,270,301,572
756295,217,265,588
756311,178,216,283
756327,199,306,299
756342,228,263,577
756358,267,297,593
756374,268,332,493
756390,289,266,551
756406,245,219,190
756422,188,226,473
756437,576,240,630
756453,287,302,503
756469,258,319,592
756485,341,406,569
756501,390,416,489
756516,411,415,403
756532,411,406,557
756548,411,459,604
756564,443,446,434
756580,387,426,544
756596,304,403,581
756611,227,539,536
756627,161,274,474
756643,672,445,579
756659,189,228,347
756675,210,374,587
756722,183,432,517
756732,197,266,509
756742,192,345,562
756752,189,396,556
756762,246,174,566
756772,204,263,583
756785,241,266,505
756801,795,682,533
756842,335,565,302
756852,312,369,570
756862,367,339,533
756872,369,516,565
756882,370,315,554
756896,396,412,655
756912,395,449,610
756928,393,408,322
756944,416,432,342
757002,340,364,533
757012,294,284,299
757022,193,212,465
757032,185,251,610
757042,225,213,158
757052,199,285,420
757062,261,271,610
757072,258,733,626
757086,238,218,492
757102,267,232,410
757118,215,313,602
757133,200,219,564
757149,251,206,219
757165,267,217,585
757181,269,309,607
757197,334,363,527
757212,345,361,641
757228,384,417,244
757244,328,400,595
757260,403,424,578
757276,397,375,585
757292,363,280,555
757307,264,295,587
757323,242,574,493
757339,315,243,565
757355,280,247,569
757371,182,244,568
757387,193,727,341
757402,701,232,469
757418,177,254,622
757434,235,295,618
757450,300,243,305
757466,226,244,533
757481,540,362,214
757497,637,538,613
757513,274,268,299
757529,582,506,617
757545,467,565,518
757561,308,289,585
757576,473,802,600
757592,318,335,599
757608,327,392,595
757624,339,389,269
757640,290,373,465
757656,297,351,441
757671,281,308,543
757687,265,273,128
757703,260,288,593
757719,237,281,573
757735,215,272,171
757750,215,239,581
757766,247,257,619
757782,231,442,432
757798,257,245,392
757814,219,201,355
757830,185,237,499
757845,201,227,469
757861,210,261,566
757877,272,253,612
757893,317,282,628
757909,416,310,591
757924,369,290,593
757940,413,426,556
757956,345,381,492
757972,352,442,539
757988,368,430,334
758004,311,310,340
758019,248,291,572
758035,600,243,561
758051,187,209,312
758067,168,257,437
758083,200,226,271
758098,233,417,453
758114,199,196,587
758130,302,251,495
758146,201,261,573
758162,262,245,569
758178,459,440,457
758193,682,381,539
758209,224,219,534
758225,243,445,561
758241,253,277,567
758257,326,359,549
758273,334,299,558
758288,355,356,581
758304,367,358,576
758320,388,339,574
758336,380,389,558
758352,344,341,577
758367,339,361,466
758383,329,279,574
758399,240,275,541
758415,221,217,569
758431,217,232,540
758447,202,263,464
758462,206,212,351
758478,209,276,173
758494,234,225,525
758510,207,225,560
758526,197,256,607
758541,523,230,549
758557,187,302,558
758573,233,237,579
758589,243,564,605
758605,284,308,584
758621,355,333,212
758636,360,380,546
758652,375,399,540
758668,399,397,547
758684,441,475,577
758700,379,402,597
758716,335,330,217
758731,270,231,568
758747,213,221,556
758763,170,192,555
758779,187,200,587
758795,211,242,421
758810,202,255,560
758826,207,205,545
758842,204,233,310
758858,744,395,545
758874,209,238,198
758890,177,269,202
758905,223,432,520
758921,234,277,592
758937,792,255,519
758953,317,279,589
758969,373,362,284
758985,357,343,485
759000,353,374,558
759016,351,447,306
759032,330,411,604
759048,401,342,605
759064,372,353,604
759079,340,327,587
759095,326,377,231
759111,321,326,574
759127,248,270,337
759143,209,276,552
759159,205,240,557
759174,204,744,557
759190,237,221,579
759206,246,309,558
759222,258,333,572
759238,275,325,395
759306,247,253,619
759316,181,223,614
759326,217,266,317
759336,220,276,582
759346,319,316,520
759356,383,355,554
759366,316,320,558
759376,365,319,555
759386,393,374,548
759396,346,405,554
759444,268,352,534
759455,219,278,550
759465,202,671,332
759476,176,347,544
759487,162,184,492
759498,388,338,334
759509,177,212,564
759587,553,230,562
759597,226,287,581
759607,185,288,565
759617,206,475,310
759627,466,587,569
759637,182,231,229
759647,211,228,594
759657,237,277,293
759667,276,297,568
759677,365,322,534
759687,339,345,258
759697,319,336,404
759712,335,360,633
759728,327,337,507
759744,344,299,620
759760,301,373,585
759776,382,375,336
759791,343,350,650
759807,322,307,603
759823,302,326,608
759839,206,275,618
759855,180,244,398
759871,209,269,603
759886,234,231,593
759902,240,264,623
759918,224,272,615
759934,219,252,571
759950,230,249,592
759965,254,204,599
759981,245,222,592
759997,218,518,554
760013,261,276,561
760029,264,251,551
760045,342,317,401
760060,303,301,311
760076,322,320,476
760092,342,388,544
760108,369,306,333
760124,310,437,580
760139,288,331,570
760155,209,351,552
760171,179,288,572
760187,199,194,586
760203,221,187,565
760219,223,194,585
760234,191,208,566
760250,177,187,575
760266,200,203,551
760282,195,245,410
760298,166,257,554
760313,179,231,580
760329,516,258,574
760345,394,523,598
760361,254,256,196
760377,309,271,629
760393,379,284,622
760408,371,311,503
760424,418,335,420
760440,378,384,148
760456,408,464,174
760472,390,445,670
760488,376,377,611
760503,352,326,627
760519,364,375,177
760535,259,299,604
760551,227,237,638
760567,230,247,595
760582,228,218,594
760598,226,236,642
760614,217,232,581
760630,245,300,616
760646,263,311,601
760660,258,252,81
760677,250,242,595
760693,223,371,580
760709,272,266,460
760725,325,351,530
760741,378,381,393
760756,454,403,404
760772,414,426,439
760788,384,383,614
760804,429,389,597
760820,345,866,606
760836,321,781,604
760851,236,329,541
760867,208,271,583
760883,351,363,562
760899,186,319,454
760915,221,474,575
760930,195,761,232
760946,176,252,552
760962,169,482,329
760978,761,314,599
760994,219,332,423
761010,244,262,581
761025,230,243,576
761041,205,250,247
761057,284,243,124
761073,340,307,415
761089,384,393,643
761105,393,370,611
761120,345,381,612
761136,350,384,635
761152,354,377,646
761168,372,369,626
761184,408,394,559
761199,399,402,580
761214,354,355,81
761231,383,413,348
761247,242,251,568
761263,224,261,566
761278,223,311,584
761294,204,240,598
761310,242,269,588
761326,264,219,615
761342,258,246,429
761358,272,225,581
761373,231,262,577
761389,219,268,571
761405,264,230,561
761421,329,317,598
761437,367,319,566
761453,361,329,589
761468,393,351,595
761484,359,366,300
761500,350,417,382
761516,307,266,294
761532,259,372,573
761547,249,282,554
761563,170,210,543
761579,201,206,400
761595,213,500,305
761611,202,254,558
761627,193,192,570
761642,180,220,574
761658,171,438,563
761674,237,201,541
761690,222,160,560
761705,197,573,95
761721,631,337,602
761737,237,236,561
761753,299,257,562
761769,328,250,579
761785,310,308,549
761801,332,308,216
761816,377,352,317
761832,314,377,566
761848,390,392,596
761864,350,342,576
761880,351,338,404
761895,364,375,309
761969,333,344,592
761979,308,315,601
761989,263,249,548
761999,204,215,567
762009,189,255,551
762019,214,248,554
762029,244,300,415
762039,268,301,555
762049,258,248,569
762059,260,242,554
762069,228,379,548
762085,263,278,550
762102,280,302,551
762117,359,275,435
762182,318,294,540
762192,360,328,364
762202,382,375,565
762212,337,352,551
762222,423,413,578
762232,337,291,586
762242,238,617,577
762252,301,280,574
762262,336,317,568
762275,198,374,569
762291,243,210,585
762307,204,290,438
762403,458,249,372
762413,198,325,570
762423,703,689,552
762434,189,446,214
762445,231,167,618
762456,214,215,136
762466,249,222,594
762476,421,255,564
762486,600,338,608
762496,649,269,591
762506,392,448,612
762516,407,392,582
762527,426,453,625
762537,380,580,578
762547,401,356,593
762560,447,434,571
762576,412,400,523
762592,401,332,311
762607,291,255,601
762623,230,214,518
762639,223,205,592
762655,232,243,572
762671,240,296,407
762686,280,312,660
762702,279,268,156
762718,343,303,638
762734,342,325,625
762750,299,336,576
762766,313,357,556
762781,395,409,607
762797,393,438,275
762813,470,494,209
762829,460,509,620
762845,465,498,664
762861,411,438,540
762876,371,383,602
762892,427,338,616
762908,219,418,566
762924,192,184,101
762940,204,732,542
762955,212,729,359
762971,253,305,599
762987,240,193,590
763003,197,379,288
763019,240,242,600
763035,183,216,189
763050,219,359,584
763066,240,221,597
763082,446,234,129
763098,317,243,490
763114,367,320,603
763129,368,307,591
763145,382,447,566
763161,390,423,580
763177,450,407,555
763193,412,392,581
763209,412,396,131
763224,380,427,351
763240,428,453,584
763256,335,343,598
763272,236,284,633
763288,221,234,616
763303,220,210,153
763319,231,298,272
763335,271,266,490
763351,292,244,680
763367,307,246,559
763383,282,268,581
763398,317,267,197
763414,395,285,203
763430,399,407,433
763446,416,473,590
763462,451,499,556
763477,434,455,578
763493,393,457,608
763509,422,375,570
763525,302,329,547
763541,245,246,558
763557,194,633,466
763572,231,197,584
763588,243,231,565
763604,258,226,579
763620,251,221,311
763636,221,228,580
763652,190,233,574
763667,251,750,628
763683,221,317,571
763699,271,319,613
763715,406,643,502
763731,286,419,605
763746,301,301,619
763762,384,358,341
763778,398,351,156
763794,442,350,576
763810,411,335,552
763826,408,357,607
763841,398,364,545
763857,403,340,564
763873,411,291,591
763889,350,317,605
763905,317,263,589
763920,234,232,589
763936,235,216,426
763952,256,214,416
763968,266,217,256
763984,242,234,580
764000,238,259,584
764015,303,277,533
764031,269,290,419
764047,299,293,602
764063,313,428,194
764079,342,349,601
764094,434,443,627
764110,459,464,273
764126,475,503,604
764142,476,470,603
764158,364,383,600
764174,359,347,606
764189,594,261,571
764205,207,232,566
764221,195,479,551
764237,617,397,571
764253,212,221,548
764268,183,742,543
764284,193,234,616
764300,169,217,566
764316,199,246,358
764332,244,225,489
764348,237,312,626
764363,259,228,598
764379,313,272,310
764395,306,308,400
764411,377,448,473
764427,420,418,683
764443,442,482,691
764458,539,452,335
764474,410,470,366
764490,405,368,603
764506,408,451,293
764522,423,442,106
764604,349,365,246
764614,289,279,272
764624,237,270,587
764634,267,282,578
764644,334,258,455
764654,303,285,378
764664,282,292,392
764674,269,302,620
764684,404,282,366
764694,253,235,390
764704,271,306,387
764714,385,387,603
764727,414,473,552
764743,468,430,560
764759,493,475,263
764775,415,456,484
764791,374,330,455
764834,353,308,496
764844,237,693,484
764854,243,212,536
764864,198,235,559
764874,207,295,582
764885,228,249,204
764901,221,445,398
764917,286,396,396
764933,197,723,576
764949,222,701,358
764965,234,261,615
764980,189,322,619
764996,275,255,625
765012,282,343,237
765028,312,262,393
765044,379,298,564
765059,375,452,254
765075,376,385,526
765091,576,315,490
765107,409,466,365
765123,394,352,640
765139,404,378,677
765154,408,430,288
765170,321,338,645
765186,263,255,239
765202,247,259,597
765218,243,250,626
765234,270,261,508
765249,305,310,157
765265,343,341,303
765281,325,316,346
765297,315,281,235
765313,232,251,596
765328,288,270,565
765526,387,397,490
765536,468,484,298
765546,468,503,576
765557,483,434,574
765570,434,454,550
765580,474,450,257
765591,361,360,346
765601,431,269,642
765611,223,224,572
765621,181,247,574
765631,221,204,570
765641,232,791,503
765651,229,214,569
765661,247,477,432
765671,226,719,621
765681,238,285,617
765691,307,306,579
765701,276,251,550
765711,260,213,591
765721,746,621,609
765731,851,288,267
765741,329,352,595
765751,390,381,588
765761,446,468,675
765771,421,437,493
765781,480,495,598
765791,462,502,119
765801,460,440,640
765811,443,399,616
765821,373,312,594
765831,299,270,465
765841,241,252,587
765851,230,229,365
765866,236,268,421
765882,244,454,328
765898,267,253,614
765914,298,231,515
765930,298,285,623
765945,227,395,565
765961,266,326,572
765977,357,301,637
765993,390,408,668
766009,472,477,364
766025,504,463,584
766040,476,504,554
766056,493,486,595
766072,433,352,123
766088,334,376,650
766104,233,599,268
766119,212,225,589
766135,210,234,114
766151,245,224,105
766167,240,232,619
766183,209,368,613
766199,222,302,588
766214,236,336,613
766230,615,292,351
766246,273,175,638
766262,251,376,612
766278,272,350,526
766294,316,397,648
766309,430,321,652
766325,398,350,620
766341,389,330,460
766357,442,451,544
766373,454,461,214
766388,425,459,601
766404,395,420,602
766420,412,331,201
766436,329,310,583
766452,218,244,645
766468,247,249,618
766483,270,218,526
766499,259,222,111
766515,296,269,653
766531,407,301,604
766547,285,297,212
766563,309,334,611
766578,365,715,492
766594,354,779,600
766610,567,301,628
766626,451,437,250
766642,390,477,635
766657,486,476,591
766673,509,479,621
766689,434,509,603
766705,454,465,593
766721,405,282,603
766737,205,693,390
766752,197,523,603
766768,226,422,596
766784,246,219,575
766800,217,588,264
766816,186,219,555
766832,217,213,408
766847,252,368,599
766863,198,212,194
766879,218,305,618
766895,262,282,471
766911,330,282,435
766926,402,304,586
766942,378,453,570
766958,417,428,576
766974,474,417,243
766990,493,413,610
767006,482,485,585
767021,424,398,626
767037,414,396,662
767053,406,352,214
767069,341,346,183
767085,279,325,587
767100,241,496,590
767116,248,268,632
767132,229,785,489
767148,217,249,561
767164,237,273,591
767180,294,292,289
767195,298,300,593
767211,270,245,600
767227,331,286,254
767243,375,325,577
767259,424,437,564
767274,502,500,397
767290,482,510,585
767306,475,478,536
767322,453,471,575
767338,410,392,609
767354,253,519,329
767369,200,193,100
767385,234,271,566
767401,192,211,586
767417,220,261,578
767433,243,278,295
767448,210,219,455
767464,537,195,462
767480,198,693,245
767496,251,253,354
767512,484,570,618
767528,472,273,603
767543,665,327,652
767559,404,308,580
767575,379,351,332
767591,419,454,219
767607,422,481,592
767623,450,891,549
767638,415,439,460
767654,415,435,586
767670,430,404,462
767686,251,263,597
767702,252,283,590
767717,239,264,158
767733,268,311,632
767749,372,336,207
767765,310,330,585
767781,263,228,566
767797,334,264,328
767812,515,284,594
767828,298,318,594
767844,394,379,379
767860,447,464,434
767876,502,462,555
767946,469,498,536
767956,501,495,576
767966,452,456,596
767976,346,283,429
767986,276,307,611
768037,336,285,573
768047,239,219,444
768057,265,268,560
768067,246,456,307
768077,237,393,595
768087,238,246,561
768097,250,407,574
768107,239,216,543
768117,201,203,389
768127,261,467,673
768137,321,335,464
768226,365,450,587
768236,395,363,417
768246,417,396,619
768256,420,421,580
768266,421,427,622
768276,446,464,593
768287,457,483,632
768297,425,457,606
768307,391,391,591
768318,362,308,463
768328,281,267,619
768338,243,196,609
768348,257,222,624
768358,245,229,288
768368,268,299,642
768382,288,308,607
768398,306,315,619
768414,317,290,597
768429,341,312,264
768445,410,386,640
768461,460,491,350
768477,495,501,574
768493,484,493,492
768508,425,498,408
768524,369,375,580
768540,255,252,584
768556,203,569,520
768572,236,471,615
768588,211,494,599
768603,250,223,605
768619,272,296,436
768635,240,310,593
768651,197,376,547
768667,206,344,553
768682,326,767,577
768698,250,218,613
768714,304,283,314
768730,388,675,618
768746,406,360,604
768762,494,590,621
768777,338,267,210
768793,418,395,565
768809,403,348,459
768825,390,283,581
768841,362,315,585
768856,283,320,149
768872,234,225,345
768888,260,741,570
768904,237,226,399
768920,237,238,592
768936,288,271,606
768951,401,274,567
768967,241,208,575
768983,219,227,616
768999,284,251,608
769015,370,312,603
769031,368,372,284
769046,465,479,586
769062,472,502,593
769078,466,492,578
769094,489,458,600
769110,326,309,576
769125,366,228,561
769141,203,272,569
769157,239,218,582
769173,212,241,556
769189,202,400,568
769205,191,430,571
769220,204,347,566
769236,223,261,313
769252,211,252,590
769268,216,187,554
769284,208,688,614
769299,261,375,278
769315,384,320,626
769331,386,465,217
769347,362,443,456
769363,388,389,625
769379,447,437,541
769394,359,378,572
769410,419,339,573
769426,365,340,565
769442,393,390,596
769458,363,340,580
769473,318,287,315
769489,379,271,585
769505,223,366,601
769521,316,506,593
769537,305,232,580
769553,306,292,199
769568,285,264,507
769584,290,241,593
769600,329,289,640
769616,394,356,333
769632,474,344,579
769647,417,345,582
769663,488,490,588
769679,506,511,616
769695,477,414,648
769711,345,413,622
769727,240,233,611
769742,200,397,577
769758,249,328,198
769774,239,252,555
769790,201,532,242
769806,216,396,261
769822,222,796,560
769837,217,287,623
769853,695,200,597
769869,239,366,601
769885,388,246,608
769901,376,336,539
769916,471,464,570
769932,440,452,605
769948,475,493,554
769964,474,512,578
769980,475,470,578
769996,402,457,588
770011,404,419,585
770027,375,363,569
770043,364,286,579
770059,276,357,583
770075,243,254,582
770090,243,257,595
770106,239,345,432
770122,238,261,606
770138,250,253,617
770154,227,279,596
770170,571,396,602
770185,263,244,489
770201,342,344,586
770217,393,414,609
770233,411,485,570
770249,456,502,582
770265,444,433,545
770280,427,473,593
770296,395,318,399
770312,253,238,489
770328,303,545,436
770344,392,278,558
770360,217,210,580
770375,398,333,596
770419,311,194,252
770429,721,515,574
770441,196,248,184
770452,271,599,585
770462,223,266,614
770473,245,303,479
770528,290,373,599
770538,344,403,548
770548,390,372,574
770560,789,514,601
770570,494,553,582
770580,436,392,586
770590,362,444,610
770600,435,365,311
770613,431,384,641
770628,401,323,625
770644,286,252,413
770660,244,460,241
770730,736,330,632
770740,232,426,595
770750,682,681,583
770760,263,243,573
770770,262,271,598
770780,381,247,590
770790,302,252,226
770800,306,325,526
770810,428,432,437
770820,487,471,376
770834,486,495,613
770850,508,448,335
770866,482,485,555
770882,360,363,536
770897,246,565,531
770913,226,324,559
770929,214,161,567
770945,236,227,478
770961,206,228,599
770976,247,257,580
770992,271,221,604
771008,225,290,333
771024,213,301,621
771040,208,642,626
771056,289,294,606
771071,405,320,620
771087,425,461,334
771103,423,451,669
771119,443,452,621
771135,454,393,673
771151,462,466,604
771166,464,478,606
771182,412,431,526
771198,462,383,618
771214,409,408,575
771230,292,237,253
771245,250,294,362
771261,242,269,404
771277,271,246,594
771293,261,287,581
771309,251,363,492
771325,237,664,443
771340,231,243,598
771356,274,271,131
771372,355,370,435
771388,380,404,575
771404,441,427,221
771419,497,446,507
771435,491,495,682
771451,418,465,617
771467,311,355,579
771483,234,232,535
771499,185,189,507
771514,201,467,580
771530,338,246,299
771546,296,250,607
771562,224,469,323
771578,615,370,490
771593,210,280,216
771609,493,286,509
771625,212,258,592
771641,344,763,596
771657,379,369,553
771673,431,454,593
771688,441,419,591
771704,474,503,564
771720,458,498,585
771736,444,411,553
771752,434,404,177
771768,356,299,432
771783,361,297,584
771799,248,310,175
771815,245,246,337
771831,267,244,611
771847,225,452,550
771862,250,249,584
771878,266,270,412
771894,240,262,370
771910,268,297,614
771926,252,588,583
771940,308,244,95
771957,383,375,200
771973,417,460,507
771989,492,494,657
772005,494,512,317
772021,455,441,606
772036,359,414,430
772052,234,522,482
772068,197,697,580
772084,197,478,594
772100,222,385,601
772115,256,280,608
772131,243,463,581
772147,212,461,589
772163,196,307,582
772179,357,245,547
772195,247,711,562
772210,261,272,601
772226,407,409,146
772242,470,486,261
772258,421,382,270
772274,403,337,552
772289,445,429,537
772305,440,420,203
772321,425,447,576
772337,417,334,616
772353,369,349,349
772369,295,265,633
772384,221,222,495
772400,231,265,530
772416,221,240,267
772432,218,316,603
772448,247,256,578
772464,255,269,610
772479,270,206,604
772495,308,261,194
772511,307,267,574
772527,366,353,304
772543,386,351,595
772558,426,452,640
772574,432,425,572
772590,448,466,450
772606,382,385,601
772622,302,324,573
772638,433,322,564
772653,284,253,568
772669,195,286,553
772685,194,376,272
772701,301,437,567
772717,217,392,569
772733,242,526,614
772748,262,397,591
772764,554,719,606
772780,292,264,589
772796,365,283,126
772812,385,314,595
772827,404,424,587
772843,401,488,592
772859,449,408,411
772875,411,396,602
772891,332,391,623
772907,320,383,624
772922,319,283,476
772986,279,265,563
772996,240,314,572
773006,258,228,577
773016,224,274,578
773026,213,225,514
773036,249,268,582
773046,258,331,606
773056,240,320,247
773066,254,177,241
773081,233,248,604
773096,248,276,561
773112,305,342,577
773128,380,436,243
773144,488,405,180
773160,482,498,626
773175,477,440,594
773191,362,311,252
773207,222,377,477
773223,206,698,562
773239,218,698,564
773255,256,242,563
773270,224,578,222
773286,210,445,582
773302,323,288,480
773372,509,262,318
773382,274,483,301
773392,252,636,394
773402,531,406,523
773412,345,517,624
773422,362,335,566
773432,459,475,566
773443,486,500,408
773453,448,505,536
773463,456,465,570
773476,428,495,606
773492,403,393,580
773508,433,483,648
773524,390,372,574
773539,385,289,545
773555,244,208,558
773571,220,292,582
773587,246,249,571
773998,,495,538
774009,507,504,632
774019,512,488,618
774029,500,508,653
774039,508,480,605
774049,414,355,636
774063,263,190,573
774073,213,429,332
774083,210,288,582
774093,226,326,592
774103,214,283,453
774113,189,234,600
774123,247,247,583
774133,267,202,474
774143,222,210,617
774153,276,215,588
774163,389,277,231
774173,459,451,568
774183,482,465,603
774193,466,507,235
774203,469,505,89
774213,461,490,259
774223,414,464,561
774233,421,386,603
774243,398,339,589
774253,344,316,595
774263,271,293,599
774273,265,264,262
774283,283,263,574
774293,243,290,189
774303,266,285,596
774313,284,244,381
774323,287,292,529
774333,259,272,605
774343,269,208,579
774353,306,301,175
774363,380,340,510
774373,399,432,612
774383,466,505,566
774393,490,456,490
774403,412,428,636
774413,335,324,614
774423,236,236,363
774433,207,333,533
774443,177,529,595
774454,209,494,489
774464,198,441,604
774474,221,232,601
774484,212,471,582
774495,213,485,490
774506,246,340,537
774516,226,288,152
774526,473,260,605
774536,337,358,559
774552,343,405,239
774568,469,479,406
774584,474,499,211
774599,439,445,598
774615,424,404,379
774631,409,401,583
774647,399,332,561
774663,348,346,554
774678,340,311,537
774694,257,782,590
774710,228,379,601
774726,270,257,178
774742,304,260,616
774757,278,333,97
774773,349,333,626
774789,306,264,570
774805,285,281,594
774821,328,268,272
774837,377,407,570
774852,443,458,574
774868,479,437,172
774884,496,500,490
774900,503,501,548
774916,501,440,572
774932,370,316,207
774947,381,448,587
774963,234,254,570
774979,212,341,595
774995,589,336,295
775011,246,337,493
775026,243,475,565
775042,224,584,573
775058,230,213,513
775074,210,227,222
775090,264,177,554
775106,306,229,537
775121,386,365,574
775137,444,464,599
775153,455,507,601
775169,500,514,564
775185,511,516,575
775201,509,499,270
775216,503,517,534
775232,499,511,520
775248,475,514,575
775264,437,386,275
775280,285,289,351
775295,246,289,575
775311,253,262,360
775327,267,211,592
775343,260,206,570
775359,337,259,407
775375,289,237,520
775390,295,279,590
775406,313,272,579
775422,356,377,355
775438,429,389,286
775454,439,462,582
775469,499,508,107
775485,476,516,589
775501,433,505,611
775517,338,375,608
775533,279,356,382
775549,279,422,583
775564,234,372,456
775580,350,710,623
775596,272,338,142
775612,211,219,267
775628,376,243,615
775644,196,505,650
775659,265,212,644
775675,508,237,534
775691,299,286,597
775707,445,400,588
775723,442,473,607
775738,438,415,613
775754,438,420,645
775770,456,448,601
775786,432,460,560
775802,467,469,562
775818,427,418,615
775833,356,404,368
775849,363,337,574
775865,252,294,591
775881,252,301,342
775897,282,436,588
775913,254,246,578
775928,297,266,560
775944,265,321,565
775960,278,223,572
775976,275,256,557
775992,280,308,576
776007,389,370,515
776023,439,442,439
776039,479,422,290
776055,497,463,555
776071,467,483,584
776087,381,291,620
776102,330,841,362
776118,230,229,620
776134,235,549,580
776150,221,461,288
776166,216,542,604
776181,231,363,469
776197,234,585,562
776213,319,266,586
776229,174,287,587
776245,243,459,580
776261,246,362,580
776276,327,255,454
776292,414,362,287
776308,467,388,619
776324,431,441,564
776374,447,408,607
776384,399,325,456
776394,419,377,569
776404,442,408,338
776414,368,489,554
776424,340,343,263
776435,330,303,578
776450,298,228,544
776466,254,277,549
776482,261,297,236
776498,254,728,610
776514,294,354,573
776578,300,187,573
776588,350,453,569
776599,387,335,437
776609,413,343,58
776619,442,459,598
776629,463,487,452
776639,492,480,561
776753,516,507,104
776763,501,496,666
776773,466,434,642
776783,271,497,444
776793,231,218,440
776803,259,206,605
776813,226,353,596
776824,251,221,577
776835,231,236,449
776845,212,265,207
776855,260,270,618
776865,251,263,597
776875,284,605,414
776885,383,251,559
776895,375,393,593
776905,405,420,641
776915,460,495,586
776925,461,421,573
776935,396,334,611
776945,445,368,561
776957,389,375,503
776972,393,356,428
776988,415,374,609
777004,376,303,614
777020,267,224,316
777036,228,408,384
777052,264,211,601
777067,261,263,545
777082,252,229,86
777099,310,321,547
777115,462,333,486
777131,266,258,250
777146,351,261,538
777162,408,346,427
777178,450,453,570
777194,496,505,576
777210,473,486,230
777225,462,473,600
777241,342,328,619
777257,223,224,594
777273,213,629,262
777289,199,181,519
777305,205,217,567
777320,234,228,582
777336,310,261,587
777352,205,516,576
777368,237,297,598
777384,323,511,585
777400,219,204,578
777415,354,363,587
777431,343,338,573
777447,521,379,594
777463,315,592,480
777479,325,277,178
777494,406,370,555
777510,375,330,642
777526,395,415,593
777542,387,653,535
777558,424,354,627
777574,367,402,624
777589,340,544,587
777604,346,360,37
777621,370,320,688
777637,355,263,691
777653,301,272,686
777668,717,340,101
777684,359,277,622
777700,329,321,623
777716,286,328,613
777732,409,382,669
777748,445,485,630
777763,503,509,516
777779,510,515,395
777795,512,359,609
777811,509,439,660
777827,439,478,684
777842,415,499,367
777858,409,448,345
777874,343,321,283
777890,372,273,292
777906,311,251,634
777922,394,335,356
777937,423,423,582
777953,389,349,587
777969,372,354,480
777985,426,292,599
778001,453,304,565
778016,308,239,556
778032,365,248,218
778048,422,447,576
778064,455,438,605
778080,475,475,619
778096,465,505,628
778111,496,464,618
778127,460,506,570
778143,418,452,529
778159,439,473,560
778175,413,340,617
778191,432,404,600
778206,460,499,397
778222,469,496,595
778238,435,506,570
778254,450,483,595
778270,424,464,580
778285,424,447,390
778301,450,472,699
778317,385,381,691
778333,477,498,594
778349,511,502,319
778365,500,495,609
778380,509,461,658
778396,452,410,625
778412,445,344,646
778428,422,407,625
778444,368,355,154
778460,296,288,621
778474,283,258,99
778491,336,256,131
778507,350,244,610
778523,373,288,637
778538,419,400,63
778554,471,856,628
778570,502,497,651
778586,485,452,192
778602,513,497,583
778618,946,468,610
778633,455,472,135
778649,477,417,556
778665,438,476,666
778681,426,409,698
778697,380,379,282
778713,381,329,641
778728,348,320,591
778744,350,316,542
778760,370,328,195
778776,374,313,595
778792,343,356,593
778807,378,312,637
778823,437,374,574
778839,448,407,634
778855,433,470,391
778871,468,449,624
778887,503,467,171
778902,509,476,638
778918,518,505,564
778934,518,514,286
778950,503,508,631
778966,460,522,633
778981,421,468,279
779028,418,399,565
779038,407,368,132
779048,369,289,571
779058,413,300,579
779068,344,307,390
779078,304,250,610
779092,262,257,580
779108,285,242,293
779124,349,252,620
779163,380,404,601
779173,490,465,584
779183,510,448,211
779193,494,504,592
779203,482,432,599
779219,474,495,600
779235,487,496,367
779250,467,459,636
779266,494,475,416
779282,501,481,593
779298,413,452,591
779314,417,467,576
779330,427,419,569
779345,417,365,558
779361,403,330,470
779377,369,291,585
779393,372,406,591
779409,414,364,626
779424,316,294,646
779440,323,268,636
779456,350,362,673
779472,427,495,587
779488,505,514,579
779504,493,512,633
779519,500,505,720
779535,476,346,137
779551,475,438,667
779651,461,484,595
779661,430,356,131
779671,410,438,588
779681,446,416,638
779691,445,427,394
779701,425,815,574
779711,412,271,342
779721,258,245,581
779731,272,629,188
779741,390,274,483
779751,419,311,641
779761,483,454,621
779771,506,504,548
779781,485,507,564
779791,470,504,589
779804,483,465,611
779820,508,491,320
779836,496,512,572
779852,473,508,530
779867,462,491,625
779883,442,501,338
779899,420,443,612
779915,434,496,141
779931,366,346,364
779947,359,294,160
779962,323,227,214
779978,359,281,506
779994,329,278,664
780010,274,250,578
780026,393,333,712
780041,448,486,420
780057,501,507,690
780073,514,508,719
780089,470,507,605
780105,479,497,586
780121,486,374,638
780136,461,402,501
780152,367,320,667
780168,408,398,577
780185,371,403,599
780200,352,313,611
780216,218,239,598
780231,218,197,544
780246,240,272,93
780263,338,323,340
780279,476,475,584
780295,507,510,422
780310,503,514,610
780326,507,514,615
780342,486,497,621
780358,509,514,377
780373,514,517,56
780389,494,500,567
780405,478,470,587
780421,454,498,576
780437,451,484,609
780453,467,442,671
780469,457,472,184
780484,442,428,256
780500,449,462,553
780516,439,387,163
780532,716,494,175
780548,310,234,613
780563,345,464,207
780579,409,309,675
780595,487,445,626
780611,513,500,564
780627,516,512,470
780643,511,508,295
780658,495,519,654
780674,439,481,586
780690,444,418,597
780706,433,345,583
780722,434,395,600
780737,421,397,622
780753,333,642,374
780769,265,258,186
780785,214,408,620
780801,245,185,529
780817,250,362,580
780832,232,263,623
780847,302,231,99
780864,353,337,550
780880,408,420,304
780896,433,402,631
780911,480,485,585
780927,476,391,115
780943,427,394,579
780959,442,457,169
780975,440,430,473
780991,449,421,559
781006,424,413,581
781022,450,385,575
781038,456,409,580
781054,422,441,258
781070,443,474,569
781085,390,322,597
781101,357,314,616
781117,341,333,310
781133,339,331,491
781149,379,238,581
781165,392,323,609
781180,457,434,597
781196,492,442,610
781212,509,460,603
781228,512,507,356
781244,465,496,637
781259,455,463,189
781275,402,450,616
781291,418,392,576
781307,414,364,570
781323,397,360,539
781339,380,337,545
781354,311,347,562
781370,273,224,590
781386,247,399,581
781402,273,230,602
781418,293,260,595
781433,420,382,570
781449,447,434,541
781465,685,545,560
781481,526,653,467
781497,464,481,585
781513,445,415,541
781528,460,462,442
781544,473,415,579
781560,487,492,596
781576,449,495,185
781592,442,480,587
781608,466,432,578
781623,415,436,644
781639,433,439,411
781655,485,431,571
781671,386,419,568
781687,366,302,280
781702,395,361,609
781718,318,321,411
781734,371,369,446
781750,375,390,625
781766,415,440,576
781782,504,454,556
781797,504,474,587
781813,486,505,576
781829,489,504,547
781845,501,483,615
781861,510,461,596
781877,471,507,220
781892,481,516,242
781908,405,426,529
781924,380,326,603
781940,362,316,322
781956,258,276,582
781971,208,343,599
781987,225,274,586
782003,282,320,183
782019,370,372,684
782035,465,478,632
782051,509,510,154
782066,513,507,544
782082,465,460,603
782098,428,493,565
782114,421,479,531
782130,393,342,548
782145,403,452,450
782161,321,328,605
782176,279,233,89
782193,291,279,531
782209,282,228,560
782225,305,243,595
782240,285,213,357
782256,282,274,643
782272,252,311,606
782288,279,292,596
782304,275,256,577
782319,313,288,553
782335,409,320,311
782351,456,369,561
782367,472,421,587
782383,504,501,570
782508,473,496,526
782518,380,326,566
782529,283,243,584
782540,392,777,603
782551,250,713,607
782617,365,332,150
782627,260,211,571
782637,223,240,589
782647,216,477,476
782657,214,349,562
782759,269,293,591
782769,198,625,576
782779,244,230,590
782790,298,296,628
782800,363,307,629
782810,430,425,619
782820,504,483,37
782830,443,474,542
782842,456,390,573
782852,535,461,589
782862,429,455,661
782872,449,502,533
782882,447,444,522
782892,401,393,584
782902,343,272,558
782912,286,405,563
782922,308,303,614
782932,320,347,656
782942,378,403,622
782952,362,321,643
782962,401,345,580
782972,459,457,431
782982,492,490,623
782992,436,443,610
783002,415,470,616
783012,481,500,559
783022,473,502,622
783032,486,494,696
783042,505,501,662
783052,430,507,572
783062,474,502,359
783072,464,405,621
783082,439,371,548
783092,356,312,607
783102,322,254,609
783112,343,240,438
783126,359,317,595
783142,347,378,192
783158,340,349,569
783174,405,603,584
783190,319,277,194
783205,337,314,591
783221,313,277,592
783237,338,307,602
783253,440,433,630
783269,430,491,115
783284,455,468,443
783300,455,395,570
783316,459,498,168
783332,476,508,569
783348,489,513,366
783364,437,501,598
783379,465,498,565
783395,483,453,580
783411,417,394,131
783427,425,428,104
783443,434,398,588
783459,417,391,618
783474,361,414,601
783490,366,392,512
783506,438,489,552
783522,499,446,571
783538,464,478,586
783553,503,486,182
783569,466,509,629
783585,494,479,565
783601,507,511,211
783617,490,519,574
783632,477,508,570
783648,427,469,555
783664,353,384,581
783680,348,256,595
783696,353,383,594
783712,299,323,620
783727,342,265,583
783742,312,306,37
783759,343,295,160
783775,362,372,587
783791,437,405,540
783806,378,462,573
783822,411,434,636
783838,495,498,554
783854,505,505,560
783870,515,512,128
783886,485,505,580
783901,492,511,250
783917,468,510,549
783933,488,504,539
783949,469,499,489
783965,490,474,566
783980,480,500,537
783996,475,471,548
784012,378,403,224
784028,423,380,567
784044,381,330,586
784060,412,338,558
784075,331,270,590
784091,277,217,627
784107,280,235,619
784123,249,235,261
784139,264,279,660
784155,330,333,150
784170,413,466,301
784186,471,456,649
784202,508,514,578
784218,513,514,542
784234,488,501,621
784249,508,509,374
784265,474,492,466
784281,434,449,555
784297,471,501,531
784313,366,471,545
784329,377,327,510
784344,378,377,558
784360,377,367,405
784376,418,314,574
784392,379,373,223
784408,241,202,528
784424,341,244,199
784439,346,303,598
784455,408,384,196
784471,560,397,201
784487,659,447,579
784503,426,483,555
784518,474,454,647
784534,505,480,626
784550,502,480,568
784566,511,508,660
784582,448,423,426
784598,415,434,628
784613,364,359,621
784629,392,366,591
784645,410,313,578
784661,377,334,319
784676,323,343,49
784692,376,334,229
784708,336,356,106
784724,362,394,634
784740,430,377,605
784756,394,374,621
784771,444,399,593
784787,499,486,544
784803,488,512,424
784819,513,508,550
784835,470,501,635
784851,457,500,554
784866,484,505,576
784882,348,289,614
784898,274,241,592
784914,232,213,566
785008,220,220,419
785018,236,208,569
785028,234,251,555
785038,219,225,553
785048,331,237,564
785058,269,391,582
785068,358,305,557
785078,393,392,391
785088,454,509,278
785098,505,514,524
785108,517,513,545
785118,503,513,557
785172,498,476,551
785182,418,484,566
785192,406,503,591
785202,441,455,309
785212,475,379,479
785342,472,430,575
785352,425,481,573
785362,409,436,589
785372,361,380,537
785382,360,435,589
785392,365,354,418
785402,372,278,617
785413,275,292,609
785423,250,239,558
785433,292,230,603
785444,326,217,593
785454,309,283,592
785465,324,273,246
785475,390,426,623
785485,476,490,570
785495,508,499,541
785505,510,506,602
785515,438,513,601
785525,451,488,181
785535,481,477,331
785545,413,389,627
785555,376,280,592
785565,266,237,588
785575,293,233,674
785585,337,225,582
785595,391,264,574
785610,392,313,361
785626,360,324,150
785642,409,327,604
785658,418,472,605
785673,478,434,556
785689,493,509,572
785705,511,500,181
785721,483,510,545
785737,435,513,578
785753,447,506,349
785767,468,470,45
785784,432,491,551
785800,423,470,561
785816,356,414,598
785832,357,434,533
785847,413,322,573
785863,422,346,557
785879,436,422,588
785895,434,439,546
785911,414,391,619
785926,405,349,588
785942,438,428,559
785958,430,442,550
785974,407,502,538
785990,483,506,540
786006,507,510,514
786021,509,439,572
786037,511,502,581
786053,515,510,562
786069,511,511,586
786085,443,491,460
786100,390,394,585
786116,420,398,600
786132,452,391,564
786148,413,377,552
786164,344,289,583
786180,354,300,484
786195,388,276,286
786211,374,307,654
786227,326,229,569
786243,325,272,565
786259,253,258,566
786275,265,273,578
786290,379,272,618
786306,371,300,290
786322,354,414,313
786338,360,320,240
786354,381,309,581
786369,339,388,630
786385,350,302,198
786401,375,292,313
786417,399,324,598
786433,365,350,598
786449,332,366,599
786463,280,225,76
786480,331,272,541
786496,316,256,575
786512,346,236,556
786528,330,265,585
786543,375,306,576
786559,375,409,545
786575,401,367,562
786591,431,429,299
786607,458,493,577
786622,505,447,61
786638,496,503,366
786654,501,507,222
786670,509,491,197
786686,499,518,559
786702,409,359,265
786717,419,337,576
786733,408,327,403
786749,407,384,556
786765,433,341,538
786781,380,368,548
786797,328,356,567
786812,330,322,645
786828,291,274,571
786844,271,300,356
786860,310,246,574
786876,328,253,626
786891,427,417,575
786907,463,495,457
786923,479,513,514
786939,492,508,578
786955,490,511,551
786971,508,486,201
786986,514,481,585
787002,444,441,570
787018,397,374,589
787034,415,365,563
787050,405,336,580
787065,443,377,578
787081,415,401,570
787097,437,442,164
787113,405,399,411
787129,338,354,621
787145,359,266,105
787160,278,274,478
787176,311,339,583
787192,360,239,573
787208,386,287,589
787224,439,474,555
787239,489,492,535
787255,509,506,549
787271,517,467,547
787287,510,432,639
787303,498,494,316
787319,424,470,311
787334,387,510,141
787350,382,364,601
787366,311,256,658
787382,328,326,373
787398,360,296,595
787414,324,357,558
787429,375,373,570
787445,352,306,461
787461,413,385,607
787477,417,340,544
787520,377,358,613
787531,467,505,622
787543,488,511,569
787554,510,514,612
787565,507,513,568
787575,493,485,588
787588,477,466,212
787603,414,391,572
787723,368,288,82
787733,375,299,356
787743,369,287,614
787753,395,311,550
787763,431,309,505
787773,382,324,558
787783,358,389,378
787793,336,280,659
787803,389,398,621
787813,419,386,619
787823,461,462,163
787886,474,478,383
787896,457,367,576
787906,329,306,630
787916,796,619,425
787926,409,361,595
787937,426,449,611
787947,491,502,191
787957,519,504,586
787967,511,468,205
787977,460,372,626
787988,462,420,624
787999,435,436,576
788009,401,321,631
788019,417,371,201
788029,380,311,589
788039,387,422,540
788049,369,406,635
788062,381,327,568
788078,311,419,540
788094,274,216,553
788110,215,343,599
788125,342,285,610
788141,379,385,564
788157,447,471,113
788173,434,428,557
788189,418,324,583
788205,398,396,576
788220,428,365,576
788236,409,385,564
788252,340,306,598
788268,282,248,558
788283,227,218,87
788299,266,238,557
788315,264,225,311
788331,299,393,373
788347,320,317,287
788363,356,204,593
788379,305,254,611
788394,314,234,568
788410,313,264,595
788426,259,252,593
788442,268,255,556
788458,296,382,609
788473,334,261,597
788489,370,254,567
788505,404,290,415
788521,329,433,268
788537,250,250,598
788553,231,263,457
788568,222,720,384
788584,652,305,296
788600,607,594,593
788616,201,198,481
788632,242,466,616
788647,256,463,236
788663,319,220,570
788679,198,236,566
788695,248,448,425
788711,498,227,546
788727,267,443,555
788742,387,361,587
788758,473,479,576
788774,477,477,557
788790,450,400,571
788806,429,496,587
788822,477,517,554
788837,419,386,586
788853,440,373,429
788869,431,365,547
788885,373,293,562
788901,251,223,598
788916,250,209,381
788932,265,291,640
788948,250,193,607
788964,280,241,177
788980,267,279,614
788996,254,242,548
789011,273,259,587
789027,244,262,564
789043,277,254,546
789059,395,270,609
789075,438,448,582
789091,451,476,553
789106,456,420,570
789122,431,396,595
789138,356,295,604
789154,261,312,554
789170,206,277,618
789185,210,346,577
789201,249,509,563
789217,240,328,550
789233,230,252,164
789249,239,250,577
789265,220,149,342
789280,313,599,625
789296,235,292,186
789312,238,257,583
789328,311,250,438
789344,360,295,534
789359,374,361,601
789375,400,330,606
789391,465,456,595
789407,314,348,563
789423,411,432,569
789439,624,334,503
789454,368,324,594
789470,309,317,560
789486,299,288,595
789502,249,232,542
789518,270,188,593
789534,264,252,159
789549,284,245,559
789565,261,240,612
789581,387,169,584
789597,254,567,535
789613,246,380,553
789628,280,199,565
789644,258,231,567
789660,366,334,548
789676,432,391,562
789692,490,480,547
789708,448,479,410
789723,498,487,559
789739,412,348,593
789755,289,257,579
789771,261,239,546
789787,237,214,558
789803,202,203,452
789818,214,327,588
789834,252,218,561
789850,264,181,626
789866,219,360,577
789882,274,279,286
789897,283,208,292
789913,277,266,532
789929,345,239,582
789945,358,330,607
789961,450,369,573
789977,424,384,606
789992,381,421,620
790008,429,478,558
790024,443,383,591
790040,456,489,555
790056,435,502,536
790072,471,516,369
790087,486,507,579
790103,357,372,574
790119,310,218,550
790135,264,268,551
790151,267,218,545
790166,256,291,546
790182,282,252,575
790198,302,251,586
790214,307,296,544
790230,256,225,314
790246,298,323,578
790303,342,307,87
790314,396,428,619
790324,459,451,598
790334,502,493,540
790344,469,508,190
790354,443,406,575
790364,391,657,115
790374,241,180,564
790388,235,183,548
790437,225,640,543
790448,226,200,297
790459,201,378,572
790469,216,240,579
790479,221,219,568
790489,269,461,548
790500,230,275,582
790514,230,192,556
790530,239,256,536
790632,316,251,638
790642,404,346,570
790652,405,352,576
790662,400,313,399
790672,380,299,92
790682,377,271,577
790692,418,362,563
790702,424,405,536
790712,442,382,529
790722,469,388,563
790732,395,343,481
790743,266,293,588
790753,256,290,534
790763,252,236,538
790773,256,263,571
790783,308,245,545
790799,278,241,564
790815,228,253,543
790831,263,275,595
790847,254,251,575
790862,286,249,568
790878,394,349,559
790894,456,394,580
790910,492,496,567
790926,467,505,538
790942,417,453,187
790957,371,309,600
790973,258,218,590
790989,240,304,556
791005,246,224,394
791021,237,251,563
791036,228,187,476
791052,224,369,577
791068,229,264,559
791084,229,264,543
791100,251,209,567
791116,208,221,585
791131,245,291,563
791147,290,465,301
791163,376,281,596
791179,437,410,554
791194,458,484,48
791210,490,517,551
791226,454,408,258
791242,447,433,601
791258,483,493,582
791274,471,499,563
791290,446,474,543
791305,385,429,116
791321,313,342,601
791337,251,209,239
791353,269,261,422
791369,276,277,272
791384,269,303,589
791400,257,267,366
791416,298,218,590
791432,306,223,596
791448,276,255,596
791464,301,285,287
791479,361,325,384
791495,386,378,285
791511,454,450,548
791527,485,494,348
791543,443,437,568
791557,392,338,89
791574,344,262,589
791590,272,257,561
791606,425,567,545
791622,312,546,570
791638,217,589,596
791653,248,261,567
791669,237,225,533
791685,222,260,557
791701,600,627,504
791717,251,208,569
791732,228,215,555
791748,227,254,446
791764,312,350,574
791780,394,402,493
791796,451,373,109
791812,444,425,141
791827,450,424,606
791843,448,341,568
791859,458,438,575
791875,476,477,528
791891,407,382,556
791906,392,428,196
791922,303,340,576
791938,242,268,598
791954,263,453,217
791970,248,511,189
791986,254,281,543
792001,244,209,610
792017,291,261,584
792033,272,775,635
792048,261,227,85
792065,298,261,208
792080,298,286,609
792096,341,368,537
792112,465,489,547
792128,488,468,202
792144,502,488,574
792160,471,498,647
792175,379,354,580
792191,279,286,494
792206,208,311,99
792223,250,227,569
792239,252,208,589
792254,253,320,568
792270,272,239,591
792286,214,223,575
792302,187,181,569
792318,233,226,162
792334,240,420,615
792349,293,234,590
792365,325,259,633
792381,399,426,589
792397,472,463,308
792413,500,507,543
792428,476,518,635
792444,415,474,601
792460,419,425,593
792476,461,504,570
792492,493,429,554
792508,487,514,534
792523,475,387,530
792539,303,267,493
792555,274,247,569
792571,242,282,572
792587,242,279,578
792602,268,225,599
792618,269,352,575
792634,280,229,572
792650,296,302,581
792666,266,267,583
792682,309,256,578
792697,383,278,613
792713,446,441,590
792729,506,480,560
792745,514,498,610
792761,495,494,565
792777,428,327,580
792792,406,327,603
792808,250,574,607
792824,258,220,566
792840,249,617,287
792856,249,235,573
792871,218,203,578
792887,226,380,341
792922,225,267,593
792932,288,248,595
792942,233,407,593
792952,459,510,567
792966,302,220,249
792982,340,280,556
793042,372,361,583
793052,376,394,91
793062,412,391,189
793072,400,398,581
793082,453,423,561
793092,429,451,539
793102,394,361,565
793112,374,400,553
793210,386,270,140
793220,273,261,192
793230,257,206,611
793240,271,274,655
793250,247,242,602
793260,257,302,442
793270,267,282,459
793280,258,251,606
793291,259,345,556
793301,263,234,373
793311,283,284,554
793321,365,343,599
793331,464,431,544
793341,504,481,536
793354,491,482,550
793364,427,472,568
793378,386,316,573
793393,333,269,538
793409,222,235,579
793425,198,310,553
793441,256,175,533
793457,234,406,594
793473,216,595,283
793488,195,208,539
793504,235,447,622
793520,235,199,622
793536,234,204,500
793552,222,396,498
793568,487,490,572
793583,229,191,527
793599,425,290,593
793615,442,471,543
793631,397,362,623
793647,405,365,574
793662,491,381,600
793678,383,307,605
793694,349,358,625
793710,358,372,343
793726,335,316,200
793742,320,273,568
793757,256,243,408
793773,252,244,607
793789,249,248,562
793805,254,298,582
793821,325,246,614
793837,292,216,624
793852,271,242,630
793868,300,282,619
793884,368,253,446
793900,420,320,601
793916,458,653,553
793931,474,417,548
793947,497,480,521
793961,464,512,8
793979,405,470,626
793995,325,309,286
794010,268,253,576
794026,234,705,595
794042,226,455,584
794058,242,485,438
794074,257,292,596
794090,235,563,409
794105,228,217,551
794121,542,262,566
794137,242,375,580
794153,256,228,549
794169,326,256,576
794184,343,294,538
794200,401,385,560
794216,411,426,569
794232,352,304,557
794248,397,430,547
794264,425,478,549
794279,405,393,538
794295,407,343,556
794311,351,293,540
794327,353,266,146
794343,267,679,211
794358,240,269,595
794374,230,214,569
794390,239,226,642
794406,261,391,439
794422,287,237,574
794438,321,247,607
794453,300,261,429
794469,269,235,568
794485,283,210,297
794501,352,276,561
794517,424,360,610
794532,470,454,557
794548,479,498,539
794564,388,460,555
794579,367,372,87
794596,290,257,565
794612,236,250,594
794627,223,198,267
794643,394,245,603
794659,216,221,575
794675,195,221,544
794691,209,422,565
794706,210,243,562
794722,242,246,556
794738,250,233,433
794754,271,425,462
794770,336,257,575
794786,389,380,549
794801,437,452,568
794817,461,489,531
794833,430,421,546
794849,465,403,562
794865,433,357,549
794880,422,397,581
794896,408,397,577
794912,473,371,558
794928,448,392,525
794944,276,246,564
794960,245,280,572
794975,279,240,577
794991,297,276,600
795007,257,259,469
795023,252,298,369
795039,285,266,576
795054,256,279,588
795070,241,258,565
795086,338,333,139
795102,381,385,578
795118,423,459,582
795134,455,500,549
795149,468,511,282
795165,494,423,631
795181,408,342,590
795197,278,296,581
795213,260,242,575
795229,251,204,576
795244,227,241,581
795260,235,320,513
795276,212,233,211
795292,264,244,583
795308,251,370,567
795323,282,225,546
795339,245,232,559
795355,260,369,506
795371,271,217,573
795387,307,225,359
795403,382,310,476
795418,378,267,600
795434,390,316,567
795450,443,607,552
795466,480,465,551
795532,590,352,514
795542,372,454,553
795552,369,401,136
795562,313,369,142
795572,273,213,576
795582,253,327,349
795592,253,253,582
795602,233,222,552
795612,238,255,438
795624,258,295,555
795640,270,198,572
795656,240,245,546
795671,232,234,593
795687,266,271,172
795728,293,291,591
795738,369,377,550
795748,427,375,569
795758,414,386,559
795768,392,348,630
795782,380,312,591
795798,281,223,556
795814,235,239,571
795830,203,188,361
795964,215,342,252
795974,181,369,578
795984,287,216,548
795994,163,343,564
796004,160,529,536
796014,181,681,537
796024,200,719,548
796035,223,239,573
796045,591,438,562
796055,318,585,570
796065,382,396,574
796075,381,397,575
796085,417,401,561
796095,442,288,561
796105,455,392,552
796115,457,357,567
796125,411,471,535
796135,473,426,537
796145,386,351,579
796155,316,317,384
796165,285,251,567
796178,231,234,568
796194,215,271,616
796209,230,469,562
796225,270,213,561
796241,240,246,331
796257,269,372,584
796273,280,258,556
796288,373,327,172
796304,396,362,566
796320,476,408,615
796336,477,448,576
796352,488,479,542
796368,475,507,383
796383,431,356,572
796399,329,246,137
796415,270,211,276
796431,471,259,585
796447,223,403,589
796462,672,226,499
796478,187,613,547
796494,576,198,557
796510,329,298,565
796526,224,307,580
796541,570,407,17
796557,263,258,591
796573,252,746,586
796589,304,282,559
796605,399,348,564
796621,472,423,579
796636,404,465,279
796652,393,386,502
796668,431,430,554
796684,451,396,574
796700,463,459,545
796716,405,452,281
796731,428,489,548
796747,393,427,556
796763,423,440,548
796779,420,460,347
796795,449,397,551
796810,384,419,568
796826,365,335,566
796842,295,262,553
796858,264,218,539
796874,199,192,534
796890,249,322,582
796905,316,280,572
796921,359,370,609
796937,432,461,620
796953,469,486,563
796969,451,434,645
796985,432,363,428
797000,390,336,601
797016,414,401,592
797032,439,461,553
797048,420,450,583
797064,397,387,595
797079,404,338,600
797095,381,295,574
797111,322,247,582
797127,245,261,581
797143,226,209,573
797159,205,223,544
797174,307,294,224
797190,360,411,548
797206,449,495,528
797222,469,479,580
797238,463,367,571
797253,499,479,562
797269,443,416,565
797285,418,481,548
797300,454,489,49
797317,455,509,621
797333,457,514,299
797348,445,377,114
797364,448,443,414
797380,407,414,573
797396,355,365,390
797412,384,446,570
797427,418,451,555
797443,561,294,157
797459,222,206,165
797475,260,310,588
797491,368,278,551
797507,429,361,586
797522,360,357,570
797538,475,483,603
797554,488,515,559
797570,511,436,212
797586,508,499,562
797601,457,490,553
797617,483,465,599
797633,471,422,541
797649,402,357,585
797665,355,295,549
797681,325,351,336
797696,239,241,573
797712,256,230,559
797728,259,224,582
797744,247,223,251
797760,256,392,359
797776,324,200,591
797791,424,402,553
797807,442,423,582
797823,483,451,555
797839,442,472,584
797855,409,483,580
797870,446,519,603
797886,455,475,545
797902,457,500,538
797918,504,505,544
797934,416,366,584
797950,388,452,564
797965,402,428,555
797981,380,357,542
797997,430,397,582
798013,413,311,576
798029,270,211,559
798044,236,228,557
798060,242,251,566
798076,277,234,353
798092,368,311,591
798108,424,413,539
798124,494,505,555
798139,502,503,555
798155,508,496,522
798171,508,496,517
798187,476,500,568
798203,461,499,559
798218,406,409,613
798263,387,382,235
798273,399,423,550
798283,360,321,612
798293,261,239,194
798303,236,227,569
798313,199,276,577
798329,198,252,456
798345,245,220,560
798361,217,205,582
798377,221,273,561
798392,306,288,123
798459,320,311,563
798469,337,303,548
798480,565,435,619
798490,361,291,576
798500,348,363,419
798510,405,471,557
798520,384,376,562
798531,390,389,609
798542,341,300,609
798552,278,260,550
798567,257,265,570
798582,285,292,588
798663,288,248,592
798673,300,224,191
798683,252,285,585
798693,284,209,608
798703,271,246,582
798716,317,272,566
798726,292,271,575
798736,326,304,348
798746,396,349,576
798756,415,387,559
798766,373,342,581
798776,332,292,587
798788,290,279,566
798804,232,330,384
798820,211,170,549
798835,188,182,551
798851,217,238,545
798867,237,265,293
798883,220,232,547
798899,219,221,555
798915,213,235,534
798930,182,216,600
798946,224,263,548
798962,265,263,566
798978,318,292,579
798994,297,318,583
799009,339,341,555
799025,391,295,570
799041,425,378,530
799057,408,369,350
799073,412,421,542
799089,384,445,586
799104,392,464,259
799120,366,346,389
799136,256,288,574
799152,256,209,571
799166,260,288,6
799183,350,326,564
799199,301,245,399
799215,286,295,576
799231,302,278,605
799247,284,266,557
799263,270,276,591
799278,306,222,597
799294,307,313,557
799310,394,333,564
799326,455,425,567
799342,466,496,541
799357,419,422,595
799373,375,313,228
799389,339,303,568
799405,259,249,563
799421,248,442,542
799437,509,290,552
799451,228,256,87
799468,246,282,555
799484,203,228,312
799500,165,308,583
799515,269,698,35
799531,698,344,513
799547,251,194,217
799563,533,267,590
799579,348,308,584
799595,417,389,556
799610,389,403,540
799626,413,485,561
799642,447,514,588
799658,465,517,548
799674,450,451,533
799690,440,437,532
799705,423,354,576
799721,420,328,186
799737,422,381,636
799753,405,342,569
799769,447,342,438
799784,414,360,333
799800,367,306,259
799816,341,313,566
799832,361,431,215
799847,354,396,24
799864,284,225,593
799879,261,274,200
799895,363,390,606
799911,454,498,552
799927,481,457,621
799943,510,502,536
799958,510,521,542
799974,436,460,543
799990,447,483,550
800006,406,313,112
800022,408,420,570
800038,366,382,576
800053,340,441,605
800069,353,345,591
800085,405,271,620
800101,309,242,576
800117,208,235,383
800133,224,292,564
800148,334,268,316
800164,424,451,566
800180,503,503,565
800196,500,492,567
800212,477,475,592
800227,449,480,197
800243,487,511,540
800259,493,508,534
800275,510,512,449
800291,442,516,573
800307,477,459,389
800322,437,337,625
800338,429,347,579
800354,431,398,560
800370,475,494,194
800386,495,470,228
800401,512,505,562
800417,507,516,412
800433,515,515,562
800449,602,618,543
800465,304,600,592
800481,291,250,560
800496,220,213,541
800512,196,234,548
800528,200,209,362
800544,231,222,551
800560,241,230,133
800575,248,244,672
800591,281,246,603
800607,268,222,299
800623,271,475,580
800639,227,216,571
800655,315,216,563
800670,321,246,593
800686,383,338,578
800702,340,350,600
800718,407,389,560
800734,428,466,592
800750,445,352,588
800765,466,478,581
800781,485,500,544
800819,464,504,572
800830,469,461,253
800840,427,417,564
800850,373,417,574
800860,425,423,503
800876,472,442,580
800928,377,426,557
800938,359,308,546
800948,391,324,563
800959,390,360,587
800969,385,431,552
801082,423,461,544
801092,498,510,61
801102,512,504,533
801112,513,516,527
801122,490,516,547
801132,510,507,576
801142,495,517,90
801152,450,409,578
801162,510,502,516
801172,505,514,564
801182,407,428,534
801192,442,459,547
801202,442,516,603
801213,464,456,583
801223,365,389,572
801233,326,218,589
801243,286,255,332
801253,314,232,553
801263,339,263,585
801273,328,242,416
801287,290,267,585
801302,266,370,62
801319,341,314,538
801335,355,332,583
801351,338,314,195
801366,375,389,550
801382,419,318,573
801398,469,310,580
801414,449,498,545
801430,456,444,576
801446,462,314,616
801461,374,373,593
801477,381,309,550
801493,359,319,544
801509,661,341,248
801525,449,323,553
801540,463,455,588
801556,402,401,570
801572,348,306,619
801588,315,320,388
801604,317,382,613
801620,305,251,262
801635,351,258,551
801650,446,342,66
801667,457,417,189
801683,464,470,576
801699,490,430,550
801714,490,484,546
801730,469,508,430
801746,423,394,546
801762,447,394,168
801778,391,290,563
801794,396,253,568
801809,397,372,129
801825,421,367,563
801841,396,415,557
801857,308,304,574
801873,258,244,273
801888,259,270,315
801904,251,275,572
801920,273,217,595
801936,355,360,539
801952,407,424,596
801968,441,484,533
801983,445,461,557
801999,455,455,542
802015,419,451,569
802031,433,393,568
802047,421,404,629
802062,419,412,571
802078,443,447,544
802094,366,409,568
802110,424,395,600
802126,435,479,526
802142,422,395,561
802157,438,332,576
802173,398,303,488
802189,311,250,607
802205,219,252,547
802221,238,197,434
802236,343,267,551
802252,398,356,555
802268,473,437,552
802284,509,503,469
802300,500,508,578
802316,511,508,596
802331,459,494,607
802347,448,497,535
802363,441,420,536
802379,416,377,560
802395,426,365,593
802410,336,342,467
802426,315,348,587
802442,300,308,288
802458,219,343,342
802474,238,233,350
802490,179,345,533
802505,425,406,596
802521,311,241,589
802537,381,422,531
802553,403,474,554
802569,443,499,364
802584,357,308,506
802600,425,457,453
802616,437,481,367
802632,446,442,572
802648,448,388,557
802664,403,406,597
802679,409,389,103
802695,417,418,547
802711,322,346,587
802727,341,301,375
802743,375,312,575
802759,310,216,581
802774,238,224,205
802790,243,198,585
802806,243,213,375
802822,285,276,578
802838,410,378,574
802853,469,419,570
802869,485,468,531
802885,508,503,519
802901,514,459,386
802917,459,455,554
802933,334,330,549
802948,404,397,582
802964,451,440,183
802979,433,459,15
802996,407,444,530
803012,390,346,550
803027,284,307,542
803043,226,243,561
803059,213,417,578
803075,270,257,593
803091,344,437,275
803107,307,294,564
803122,306,331,601
803138,334,319,607
803154,427,432,582
803170,472,407,539
803186,489,496,471
803201,479,396,555
803217,454,477,582
803233,415,386,570
803249,423,360,546
803264,437,421,95
803281,427,424,496
803296,387,473,603
803312,364,433,595
803328,405,414,588
803344,393,434,586
803360,439,473,612
803375,417,408,619
803391,435,419,294
803407,463,493,649
803423,454,492,591
803439,366,369,252
803500,222,798,566
803510,471,462,587
803522,225,458,662
803533,696,299,601
803543,276,537,601
803554,217,201,340
803564,721,411,318
803574,650,381,581
803584,408,804,563
803597,273,231,624
803613,283,258,527
803662,320,299,582
803672,306,293,565
803682,321,276,469
803692,347,272,592
803702,347,359,591
803712,348,394,270
803723,397,366,576
803808,416,365,574
803818,416,411,538
803828,429,431,171
803838,452,473,328
803848,470,501,585
803858,425,472,559
803868,442,442,598
803878,423,460,593
803888,424,328,573
803898,375,344,568
803908,345,304,589
803918,370,332,559
803929,410,319,583
803945,421,371,559
803961,415,372,237
803977,373,325,576
803992,412,461,177
804008,497,488,561
804023,510,511,43
804040,509,512,575
804056,514,499,204
804072,502,459,577
804087,448,414,590
804103,366,476,594
804119,413,450,186
804135,434,460,463
804151,449,480,206
804166,426,364,636
804182,370,283,613
804198,312,340,594
804214,317,331,608
804230,278,302,588
804246,306,281,594
804261,284,256,297
804277,314,274,567
804293,335,356,456
804309,418,385,585
804325,461,401,588
804340,432,402,611
804356,476,448,557
804372,498,496,538
804388,479,499,552
804404,419,386,590
804420,367,362,688
804435,350,332,602
804451,379,379,378
804467,524,338,592
804482,347,331,26
804499,392,314,586
804514,397,392,292
804530,373,338,585
804546,388,362,367
804562,404,421,597
804578,375,349,564
804594,362,311,580
804609,306,276,349
804625,236,238,562
804641,281,274,267
804657,380,372,635
804673,450,482,564
804688,493,508,637
804704,508,445,410
804720,466,479,177
804736,498,493,580
804752,476,450,220
804768,457,513,583
804783,439,376,458
804799,360,363,625
804815,327,347,536
804831,370,398,578
804847,361,328,583
804862,257,340,560
804878,224,217,496
804894,281,271,565
804910,305,779,595
804926,406,393,576
804942,440,462,544
804957,466,479,584
804973,476,443,627
804989,484,503,126
805005,500,479,619
805021,427,486,554
805037,473,482,538
805052,419,426,542
805068,437,446,613
805084,477,420,583
805100,477,316,595
805116,449,319,596
805131,423,395,145
805147,353,347,650
805161,317,294,7
805179,313,316,628
805194,335,323,42
805210,359,378,610
805226,438,426,655
805242,457,416,570
805258,507,504,546
805274,488,515,545
805290,489,508,601
805305,456,516,591
805321,466,501,593
805337,462,507,565
805353,488,516,564
805369,452,487,564
805384,387,394,570
805400,264,391,564
805414,210,296,6
805432,267,286,524
805448,272,420,551
805463,302,274,533
805479,260,230,595
805495,247,652,545
805511,344,322,552
805527,420,403,269
805543,481,432,577
805558,446,885,551
805574,350,321,581
805590,387,364,569
805606,394,402,574
805622,372,375,573
805637,435,330,561
805653,416,375,595
805669,409,390,585
805685,445,437,548
805701,445,417,533
805717,456,335,528
805732,373,295,574
805748,262,240,567
805764,248,225,292
805780,246,209,138
805796,285,254,601
805810,377,356,64
805827,467,335,588
805843,606,467,574
805859,505,496,574
805875,476,465,412
805891,509,461,506
805906,484,489,532
805922,427,419,548
805938,458,431,584
805954,406,482,502
805970,416,464,570
805985,310,273,538
806001,232,540,587
806017,195,599,568
806033,193,220,556
806075,213,252,591
806085,284,298,589
806095,259,228,610
806105,295,366,590
806115,358,416,290
806128,492,494,576
806144,513,512,559
806159,485,482,522
806175,482,453,393
806226,503,509,605
806236,480,491,551
806246,469,440,547
806256,507,497,621
806266,465,455,599
806276,416,494,544
806286,349,377,561
806302,354,328,565
806318,331,360,611
806334,278,285,568
806400,250,277,549
806410,248,255,589
806420,275,240,605
806431,282,282,643
806441,358,345,576
806452,448,467,555
806464,498,509,567
806475,488,501,536
806485,489,473,220
806497,515,506,652
806508,502,456,596
806523,477,368,586
806539,423,481,569
806555,416,501,132
806571,456,421,598
806587,420,400,579
806602,377,305,551
806618,214,232,568
806634,241,194,567
806650,256,200,592
806666,236,224,456
806682,323,296,615
806697,429,388,550
806713,483,494,541
806729,498,512,284
806745,401,492,583
806761,415,505,281
806776,450,500,585
806792,429,482,595
806808,467,408,568
806824,453,438,573
806840,443,490,438
806856,419,352,603
806871,415,371,219
806887,362,323,634
806903,327,267,648
806919,272,239,317
806935,263,254,575
806951,299,172,584
806966,293,216,387
806982,353,273,559
806998,424,396,556
807014,469,418,557
807029,497,483,11
807045,620,707,536
807061,501,512,228
807077,501,504,555
807093,435,521,580
807109,434,467,611
807124,454,497,562
807140,428,434,262
807156,450,352,558
807172,421,355,570
807188,299,331,468
807204,229,260,571
807219,282,227,574
807235,213,324,549
807251,323,653,189
807267,392,337,604
807283,452,394,546
807298,508,482,557
807314,436,499,198
807330,431,418,361
807346,418,479,649
807362,462,495,588
807378,476,475,581
807393,472,485,579
807409,435,515,558
807425,469,511,554
807441,413,421,517
807457,378,271,593
807473,369,286,323
807488,348,278,548
807504,331,283,585
807520,228,265,565
807536,225,236,233
807552,285,249,609
807567,355,284,584
807583,389,411,587
807599,440,458,618
807615,468,434,595
807631,480,436,602
807647,512,493,541
807662,517,465,566
807678,482,406,548
807694,481,495,540
807710,492,499,551
807726,431,389,596
807742,373,368,606
807757,377,325,560
807772,272,222,94
807789,305,242,545
807805,213,333,581
807821,234,374,372
807836,267,420,605
807852,393,313,615
807868,468,422,546
807884,464,506,584
807900,498,510,555
807915,475,513,536
807931,486,407,595
807947,481,492,572
807963,462,487,546
807979,434,493,546
807995,442,502,532
808010,441,496,574
808026,437,455,598
808042,473,371,601
808058,423,437,573
808074,339,430,548
808089,286,243,357
808105,267,215,605
808121,282,253,473
808137,415,351,603
808153,442,468,600
808169,474,493,560
808184,506,511,546
808200,508,486,473
808215,504,470,91
808232,507,469,572
808248,454,423,588
808264,445,473,568
808279,416,434,537
808295,398,383,562
808311,457,445,414
808327,407,475,190
808343,388,318,611
808358,290,269,599
808374,177,239,589
808390,211,584,570
808406,249,299,585
808422,365,263,356
808438,406,361,546
808453,699,734,531
808469,698,467,117
808484,449,510,29
808501,387,471,555
808517,397,443,574
808532,380,417,627
808548,407,422,594
808564,462,470,358
808627,463,498,566
808637,455,434,584
808647,411,389,606
808657,381,401,214
808667,413,339,651
808677,394,386,610
808687,367,328,593
808697,285,271,569
808707,311,258,616
808722,328,331,224
808738,398,423,585
808754,457,505,560
808770,478,494,525
808804,466,488,620
808814,490,509,563
808824,511,495,353
808834,465,507,546
808849,428,394,631
808865,393,468,574
808880,407,490,560
808896,357,423,566
808912,380,371,593
808961,336,327,604
808971,275,267,543
808981,189,187,248
808991,237,337,280
809001,252,647,569
809011,275,268,571
809023,409,301,602
809039,446,468,558
809054,445,428,549
809070,449,462,550
809086,435,501,590
809102,495,513,550
809118,489,506,572
809134,500,430,569
809149,454,484,560
809165,409,496,230
809181,361,474,541
809197,391,412,544
809213,317,331,607
809228,458,405,534
809244,457,416,272
809260,377,341,289
809276,350,377,587
809292,465,472,564
809308,456,391,559
809323,349,460,542
809339,254,288,490
809355,307,301,659
809371,317,293,620
809387,295,232,599
809403,256,236,481
809418,242,264,143
809434,671,511,618
809450,664,413,153
809466,272,474,550
809482,441,563,428
809497,603,307,326
809513,583,746,558
809529,426,427,396
809545,339,366,234
809561,325,246,574
809577,593,362,353
809592,321,264,572
809608,332,376,649
809624,384,381,597
809640,447,333,562
809656,397,432,522
809671,382,493,555
809686,338,326,87
809703,369,427,548
809719,380,360,599
809735,411,476,477
809751,441,483,556
809766,434,411,609
809781,395,366,16
809798,440,462,604
809814,420,435,197
809830,384,404,560
809845,364,400,540
809861,398,415,593
809877,363,481,443
809893,440,481,556
809909,490,507,559
809924,509,501,575
809940,512,501,112
809956,494,492,595
809972,498,515,554
809988,413,486,571
810004,380,373,540
810019,354,353,574
810035,367,347,709
810051,340,427,649
810067,337,337,105
810083,365,308,581
810098,385,315,618
810114,384,695,565
810130,286,772,591
810146,248,251,205
810162,359,426,165
810178,273,492,363
810193,263,228,563
810209,247,229,328
810225,281,247,557
810241,259,218,560
810257,316,254,199
810272,258,274,245
810288,272,317,533
810304,300,256,295
810320,329,272,543
810334,331,288,6
810352,373,295,605
810365,333,266,6
810383,367,257,635
810399,272,248,606
810415,271,256,597
810431,275,256,562
810446,302,210,369
810462,482,255,427
810478,333,328,309
810494,305,362,493
810510,382,455,593
810525,351,407,569
810541,481,495,571
810557,457,478,106
810573,415,480,626
810589,345,372,602
810605,374,291,434
810620,350,349,616
810636,411,384,603
810652,395,390,456
810668,383,375,597
810684,320,339,605
810699,355,290,569
810715,285,292,142
810731,287,261,587
810747,302,335,618
810763,298,256,633
810779,305,272,601
810794,306,298,576
810810,349,298,623
810826,342,409,643
810842,368,444,629
810858,360,391,592
810873,312,342,236
810889,354,285,537
810905,339,321,330
810921,371,368,600
810937,381,332,572
810953,350,290,371
810968,337,264,607
810984,302,223,366
811000,295,249,594
811016,270,345,648
811032,255,253,638
811048,244,242,226
811063,201,269,583
811079,209,250,611
811095,193,293,606
811111,234,249,611
811127,287,273,604
811142,356,359,624
811158,364,353,228
811174,359,293,585
811190,402,367,590
811206,384,462,619
811221,313,336,75
811237,421,349,595
811253,417,350,386
811298,375,342,591
811309,363,320,84
811319,335,290,608
811330,319,224,536
811340,298,261,608
811350,312,240,578
811364,340,276,568
811410,287,301,594
811420,297,309,564
811430,306,307,605
811441,386,321,390
811452,419,294,601
811463,368,360,363
811534,274,382,446
811544,260,376,565
811555,323,350,348
811566,305,347,345
811576,317,423,579
811586,349,372,569
811597,400,338,653
811607,436,295,581
811617,410,279,130
811627,362,351,590
811637,307,304,569
811649,302,279,541
811664,264,269,608
811680,230,191,456
811696,237,203,592
811712,224,222,566
811728,211,243,174
811744,234,365,196
811759,307,279,577
811775,354,387,585
811791,461,471,155
811807,460,515,576
811823,471,474,533
811838,462,373,369
811854,435,469,571
811870,437,474,465
811886,446,391,633
811902,429,394,610
811918,414,286,591
811933,381,301,595
811949,438,843,219
811965,327,346,582
811981,326,297,567
811997,284,307,613
812013,346,292,218
812028,313,292,620
812043,375,274,47
812060,377,325,651
812076,349,382,291
812092,377,370,637
812105,415,404,6
812123,440,476,242
812139,410,464,600
812155,421,398,261
812171,433,506,589
812186,432,441,575
812202,436,469,656
812218,386,305,590
812234,329,365,636
812250,411,342,598
812265,442,423,575
812281,391,466,630
812297,406,336,580
812313,401,436,538
812329,428,310,635
812345,493,480,572
812360,507,508,282
812376,513,516,255
812392,513,493,635
812408,513,509,539
812424,514,490,530
812439,509,511,581
812455,510,472,619
812471,495,444,628
812487,480,450,555
812503,443,421,575
812519,403,317,556
812534,397,374,570
812550,377,323,552
812566,273,254,560
812582,282,440,585
812598,280,197,601
812614,272,269,613
812629,246,369,609
812645,276,280,396
812661,279,271,563
812677,335,317,587
812693,309,290,577
812708,344,293,426
812724,400,361,566
812740,368,461,522
812756,398,333,619
812772,452,313,597
812787,430,398,85
812803,458,382,670
812819,486,459,601
812835,475,481,568
812851,466,481,167
812867,429,340,516
812882,363,305,492
812898,359,298,578
812914,371,297,560
812930,361,291,595
812946,350,252,622
812962,354,304,435
812977,310,333,388
812993,412,370,642
813009,453,454,171
813025,448,467,543
813041,437,440,552
813056,417,405,390
813072,326,341,615
813088,340,271,623
813104,341,314,588
813120,349,598,591
813136,385,278,631
813151,396,322,108
813167,367,292,597
813183,340,227,370
813199,345,260,578
813215,275,361,589
813230,291,211,363
813246,306,321,601
813262,238,263,356
813277,326,205,90
813294,346,370,588
813310,318,293,594
813325,383,334,170
813341,432,428,566
813357,408,453,552
813373,417,341,614
813389,353,347,552
813404,377,364,568
813420,371,290,278
813436,340,303,614
813452,337,293,273
813468,299,260,598
813484,269,241,560
813499,220,569,584
813515,232,300,107
813531,229,222,577
813547,228,183,566
813563,234,586,260
813578,206,208,370
813594,239,231,122
813610,272,236,244
813626,286,258,693
813642,365,229,170
813658,397,302,556
813672,301,381,83
813689,381,309,608
813729,346,340,561
813739,369,289,643
813749,412,424,568
813759,348,396,643
813769,367,389,651
813784,414,385,384
813800,397,385,595
813816,405,395,317
813832,332,278,593
813847,360,360,581
813863,305,304,298
813879,398,313,596
813895,290,260,612
813911,316,302,597
813926,324,277,576
813958,292,309,606
813968,435,347,646
813979,391,369,593
813990,402,303,255
814006,437,342,405
814054,389,449,584
814064,388,346,627
814074,378,398,37
814084,390,431,172
814094,401,479,327
814104,416,438,542
814117,417,382,606
814132,383,372,560
814148,362,300,236
814164,393,363,587
814180,375,313,202
814195,350,310,502
814211,357,264,358
814227,312,241,558
814243,295,250,266
814259,330,296,617
814274,334,327,574
814290,403,414,543
814306,437,444,526
814322,409,315,605
814338,416,302,675
814354,369,285,298
814369,385,332,570
814385,372,361,484
814401,356,410,108
814417,363,364,595
814433,329,266,436
814448,309,281,592
814464,286,270,148
814480,282,211,500
814496,379,287,596
814512,356,258,585
814528,320,328,577
814543,385,282,547
814559,351,327,362
814575,345,380,596
814591,401,573,385
814607,387,441,420
814623,439,334,567
814638,458,397,561
814654,429,410,557
814670,640,629,559
814686,348,469,201
814702,363,413,141
814717,354,402,551
814733,358,296,585
814749,414,395,567
814765,392,288,293
814781,419,435,574
814797,374,365,587
814812,350,296,579
814828,357,359,546
814844,372,317,541
814860,423,334,541
814876,451,406,344
814891,469,479,556
814907,466,508,548
814923,477,500,565
814939,503,484,554
814955,364,376,550
814971,406,323,570
814985,413,381,94
815002,457,465,563
815018,468,411,221
815034,381,466,599
815050,370,360,603
815065,382,354,206
815081,325,316,242
815097,340,356,388
815113,391,265,555
815129,304,239,389
815144,263,521,559
815160,275,574,572
815176,276,132,599
815192,237,279,621
815208,242,416,581
815224,241,212,284
815239,292,268,356
815255,368,304,614
815271,422,366,585
815287,359,331,550
815303,329,288,556
815319,361,361,242
815334,329,382,596
815350,343,387,614
815366,400,354,594
815382,360,324,278
815398,352,321,580
815413,314,234,573
815429,317,252,484
815445,377,302,586
815461,335,310,595
815477,496,444,595
815493,318,331,569
815508,393,338,207
815524,466,427,598
815540,466,495,578
815556,448,502,466
815572,388,417,557
815587,428,484,590
815603,455,463,562
815619,421,457,526
815635,418,417,560
815651,432,474,543
815667,400,410,568
815682,407,358,437
815697,372,366,36
815714,421,350,546
815730,384,310,549
815746,334,276,231
815761,326,288,575
815777,336,452,413
815793,341,333,577
815809,358,305,591
815825,397,326,589
815841,351,320,608
815856,378,427,556
815872,419,401,508
815888,422,487,537
815904,486,495,545
815920,409,405,598
815935,383,350,591
815951,433,393,565
815967,416,363,299
815983,432,345,601
815999,423,331,653
816015,442,321,547
816030,414,348,562
816046,365,378,564
816062,384,460,567
816078,403,380,607
816094,391,364,545
816110,417,445,152
816125,452,435,573
816141,479,455,624
816157,468,402,595
816173,496,443,596
816189,360,391,613
816204,315,318,606
816220,333,245,593
816236,398,295,551
816252,344,290,570
816268,308,302,590
816284,328,295,145
816299,334,309,609
816315,345,309,581
816331,303,229,596
816347,254,266,559
816363,236,224,591
816379,232,788,576
816394,290,225,542
816410,288,663,583
816426,236,472,307
816442,211,277,630
816479,259,250,592
816490,278,236,579
816500,267,249,604
816510,271,294,581
816521,300,357,589
816537,301,327,213
816553,327,615,577
816602,328,476,569
816612,325,257,28
816622,367,293,558
816632,350,335,530
816642,332,314,256
816652,354,270,541
816662,379,272,78
816679,389,285,571
816695,351,267,572
816710,340,311,45
816726,394,332,554
816742,381,313,566
816778,342,298,559
816788,422,319,614
816798,435,359,561
816808,477,406,557
816821,429,468,552
816837,394,383,587
816853,381,346,594
816869,297,247,616
816885,264,253,568
816900,220,482,389
816916,238,246,587
816932,247,337,593
816948,252,241,378
816964,226,231,641
816980,238,223,263
816995,252,447,390
817011,265,241,587
817027,236,194,119
817043,248,245,612
817059,232,204,591
817074,273,235,562
817090,250,209,563
817106,333,238,188
817122,349,773,575
817138,246,224,359
817154,262,228,597
817169,328,280,571
817185,327,332,557
817201,302,293,445
817217,325,335,582
817233,301,257,428
817248,320,305,541
817264,290,277,582
817280,367,284,593
817296,340,216,560
817312,331,224,399
817327,324,421,77
817343,312,284,589
817359,292,270,298
817375,241,245,576
817391,233,201,580
817407,250,243,578
817422,247,652,460
817438,502,232,602
817454,279,289,457
