275814,331.00
275825,306.00
275835,307.00
275845,331.00
275855,344.00
275865,373.00
275876,397.00
275886,446.00
275896,502.00
275906,530.00
275959,403.00
275970,423.00
275980,456.00
275990,475.00
276000,633.00
276059,606.00
276069,738.00
276079,823.00
276089,838.00
276100,842.00
276111,846.00
276122,834.00
276133,796.00
276144,762.00
276154,745.00
276165,730.00
276175,716.00
276185,757.00
276195,775.00
276205,816.00
276215,874.00
276225,931.00
276238,974.00
276254,956.00
276270,918.00
276286,879.00
276301,871.00
276317,825.00
276333,742.00
276349,576.00
276365,408.00
276380,276.00
276396,196.00
276412,235.00
276428,284.00
276444,401.00
276460,478.00
276475,526.00
276491,579.00
276507,624.00
276523,693.00
276539,701.00
276555,700.00
276570,693.00
276586,640.00
276602,598.00
276618,584.00
276634,565.00
276649,561.00
276665,831.00
276681,854.00
276697,207.00
276713,338.00
276729,477.00
276744,498.00
276760,553.00
276776,622.00
276792,620.00
276808,593.00
276823,535.00
276839,533.00
276855,568.00
276871,596.00
276887,608.00
276903,566.00
276918,504.00
276934,452.00
276950,438.00
276966,388.00
276982,366.00
276997,361.00
277013,421.00
277029,474.00
277045,513.00
277061,543.00
277077,537.00
277092,489.00
277108,448.00
277124,414.00
277140,388.00
277156,398.00
277171,416.00
277187,451.00
277203,496.00
277219,523.00
277235,519.00
277251,558.00
277266,559.00
277282,569.00
277298,493.00
277314,737.00
277330,950.00
277346,240.00
277361,356.00
277377,598.00
277393,696.00
277409,718.00
277425,761.00
277440,758.00
277456,737.00
277472,704.00
277488,713.00
277504,738.00
277520,769.00
277535,794.00
277551,766.00
277567,724.00
277583,674.00
277599,600.00
277614,553.00
277630,525.00
277646,526.00
277662,493.00
277678,487.00
277694,493.00
277709,492.00
277725,473.00
277741,452.00
277757,484.00
277773,492.00
277788,448.00
277804,424.00
277820,364.00
277836,342.00
277852,369.00
277868,391.00
277883,448.00
277899,461.00
277915,385.00
277931,333.00
277947,366.00
277962,339.00
277978,304.00
277994,494.00
278010,750.00
278026,67.00
278042,208.00
278057,421.00
278073,500.00
278089,490.00
278105,522.00
278121,579.00
278136,606.00
278152,759.00
278168,788.00
278184,634.00
278200,17.00
278216,216.00
278231,627.00
278247,531.00
278263,752.00
278279,663.00
278295,581.00
278310,81.00
278326,432.00
278342,416.00
278358,432.00
278374,485.00
278390,492.00
278405,445.00
278421,430.00
278437,351.00
278453,310.00
278469,304.00
278484,340.00
278500,461.00
278516,573.00
278532,665.00
278548,642.00
278564,586.00
278579,466.00
278595,469.00
278611,451.00
278627,481.00
278643,404.00
278658,522.00
278674,545.00
278690,721.00
278706,1021.00
278722,342.00
278738,303.00
278753,471.00
278769,552.00
278785,534.00
278801,540.00
278817,594.00
278833,633.00
278848,663.00
278864,713.00
278880,706.00
278896,832.00
278912,818.00
278927,853.00
278943,801.00
278959,804.00
278975,746.00
278991,646.00
279007,646.00
279022,641.00
279038,633.00
279054,617.00
279070,605.00
279086,586.00
279101,614.00
279117,621.00
279133,597.00
279149,578.00
279165,543.00
279181,490.00
279196,480.00
279212,470.00
279228,477.00
279244,511.00
279260,521.00
279275,553.00
279291,595.00
279307,597.00
279323,614.00
279339,478.00
279355,345.00
279370,244.00
279386,178.00
279402,149.00
279418,305.00
279434,661.00
279449,289.00
279465,18.00
279481,192.00
279497,308.00
279513,268.00
279529,435.00
279544,457.00
279560,505.00
279576,608.00
279592,694.00
279608,643.00
279623,540.00
279639,640.00
279655,18.00
279671,409.00
279687,51.00
279703,18.00
279718,18.00
279734,16.00
279750,19.00
279766,17.00
279782,16.00
279797,17.00
279813,892.00
279829,1024.00
279845,1024.00
279861,1024.00
279877,1024.00
279892,1024.00
279908,1024.00
279924,1024.00
279940,1024.00
279956,1024.00
279971,1024.00
279987,1024.00
280003,229.00
280019,19.00
280035,16.00
280051,189.00
280066,519.00
280082,783.00
280098,992.00
280114,1024.00
280130,1024.00
280145,776.00
280161,57.00
280177,18.00
280193,19.00
280209,17.00
280225,19.00
280240,18.00
280256,19.00
280272,20.00
280288,19.00
280304,20.00
280319,15.00
280335,16.00
280351,18.00
280367,17.00
280383,17.00
280399,17.00
280414,20.00
280430,19.00
280446,19.00
280462,17.00
280478,17.00
280493,550.00
280509,871.00
280525,987.00
280541,1024.00
280557,1024.00
280573,1024.00
280588,1024.00
280604,1024.00
280620,1024.00
280636,1024.00
280652,1024.00
280667,1024.00
280683,1024.00
280699,1024.00
280715,1024.00
280731,849.00
280747,582.00
280762,664.00
280778,765.00
280794,1024.00
280810,1024.00
280826,1024.00
280841,891.00
280857,945.00
280873,972.00
280889,858.00
280905,821.00
280921,800.00
280936,840.00
280952,914.00
280968,1024.00
280984,1024.00
281000,1024.00
281015,1024.00
281031,1024.00
281047,1024.00
281063,688.00
281079,557.00
281095,530.00
281110,494.00
281126,451.00
281142,389.00
281158,252.00
281174,224.00
281190,226.00
281205,325.00
281221,451.00
281237,591.00
281253,692.00
281269,711.00
281284,680.00
281300,643.00
281316,534.00
281332,389.00
281348,202.00
281363,91.00
281379,21.00
281395,19.00
281411,19.00
281427,18.00
281443,400.00
281458,652.00
281474,1014.00
281490,1024.00
281506,862.00
281522,417.00
281537,372.00
281553,241.00
281569,135.00
281585,221.00
281601,342.00
281617,447.00
281632,494.00
281648,593.00
281664,669.00
281680,682.00
281696,631.00
281711,501.00
281727,343.00
281743,118.00
281759,38.00
281775,52.00
281791,184.00
281806,357.00
281822,498.00
281838,550.00
281854,564.00
281870,485.00
281886,350.00
281901,211.00
281917,142.00
281933,134.00
281949,336.00
281965,486.00
281980,641.00
281996,717.00
282012,708.00
282028,646.00
282044,473.00
282060,374.00
282075,393.00
282091,361.00
282107,350.00
282123,349.00
282139,387.00
282154,369.00
282170,492.00
282186,740.00
282202,146.00
282218,100.00
282234,307.00
282249,375.00
282265,356.00
282281,330.00
282297,385.00
282313,445.00
282328,609.00
282344,820.00
282360,955.00
282376,1024.00
282392,1024.00
282408,1015.00
282423,961.00
282439,897.00
282455,790.00
282471,721.00
282487,663.00
282502,656.00
282518,696.00
282534,717.00
282550,689.00
282566,656.00
282582,602.00
282597,556.00
282613,495.00
282629,530.00
282645,609.00
282661,736.00
282676,798.00
282692,783.00
282708,722.00
282724,605.00
282740,492.00
282756,412.00
282771,457.00
282787,494.00
282803,469.00
282819,472.00
282835,537.00
282850,569.00
282866,603.00
282882,868.00
282898,795.00
282914,312.00
282930,483.00
282945,572.00
282961,576.00
282977,594.00
282993,554.00
283009,478.00
283024,439.00
283040,382.00
283056,322.00
283072,277.00
283088,270.00
283104,319.00
283119,393.00
283135,458.00
283151,487.00
283167,497.00
283183,499.00
283199,497.00
283214,500.00
283230,514.00
283246,537.00
283262,550.00
283278,537.00
283293,509.00
283309,459.00
283325,422.00
283341,411.00
283357,414.00
283373,466.00
283388,530.00
283404,640.00
283420,753.00
283436,832.00
283452,844.00
283467,841.00
283483,798.00
283499,656.00
283515,574.00
283531,504.00
283547,489.00
283562,483.00
283578,772.00
283594,847.00
283610,182.00
283626,276.00
283641,388.00
283657,439.00
283673,439.00
283689,526.00
283705,529.00
283721,533.00
283736,615.00
283752,737.00
283768,860.00
283784,908.00
283800,954.00
283816,978.00
283831,937.00
283847,796.00
283863,590.00
283879,435.00
283895,309.00
283910,225.00
283926,17.00
283942,17.00
283958,19.00
283974,17.00
283990,18.00
284005,256.00
284021,312.00
284037,330.00
284053,354.00
284069,353.00
284084,382.00
284100,437.00
284116,536.00
284132,615.00
284148,655.00
284164,682.00
284179,718.00
284195,662.00
284211,615.00
284227,621.00
284243,615.00
284258,590.00
284274,689.00
284290,989.00
284306,405.00
284322,290.00
284338,442.00
284353,420.00
284369,411.00
284385,450.00
284401,512.00
284417,586.00
284432,638.00
284448,676.00
284464,718.00
284480,753.00
284496,769.00
284512,788.00
284527,762.00
284543,737.00
284559,723.00
284575,765.00
284591,758.00
284607,752.00
284622,744.00
284638,717.00
284654,627.00
284670,534.00
284686,417.00
284701,339.00
284717,334.00
284733,332.00
284749,401.00
284765,460.00
284781,543.00
284796,589.00
284812,645.00
284828,652.00
284844,654.00
284860,669.00
284875,612.00
284891,565.00
284907,522.00
284923,495.00
284939,413.00
284955,602.00
284970,902.00
284986,209.00
285002,206.00
285018,381.00
285034,481.00
285050,486.00
285065,490.00
285081,496.00
285097,490.00
285113,493.00
285129,543.00
285144,596.00
285160,680.00
285176,711.00
285192,714.00
285208,676.00
285224,625.00
285239,558.00
285255,510.00
285271,426.00
285287,277.00
285303,243.00
285318,230.00
285334,271.00
285350,368.00
285366,489.00
285382,626.00
285398,763.00
285413,782.00
285429,734.00
285445,604.00
285461,445.00
285477,303.00
285493,259.00
285508,276.00
285524,268.00
285540,284.00
285556,361.00
285572,405.00
285587,396.00
285603,480.00
285619,796.00
285635,222.00
285651,88.00
285667,306.00
285682,456.00
285698,510.00
285714,569.00
285730,602.00
285746,641.00
285761,688.00
285777,748.00
285793,801.00
285809,840.00
285825,871.00
285841,905.00
285856,857.00
285872,802.00
285888,735.00
285904,696.00
285920,658.00
285935,666.00
285951,672.00
285967,684.00
285983,684.00
285999,680.00
286015,631.00
286030,577.00
286047,519.00
286062,490.00
286078,412.00
286094,352.00
286109,393.00
286125,463.00
286141,486.00
286157,538.00
286173,646.00
286189,654.00
286204,620.00
286220,594.00
286236,589.00
286252,480.00
286268,254.00
286283,390.00
728818,510.00
728829,561.00
728839,588.00
728849,640.00
728859,685.00
728870,675.00
729576,854.00
729589,810.00
729599,804.00
729609,781.00
729619,734.00
729629,681.00
729639,736.00
729649,732.00
729659,742.00
729669,774.00
729679,818.00
729689,885.00
729699,894.00
731075,501.00
731088,783.00
731098,951.00
731108,469.00
731119,182.00
731133,244.00
731144,384.00
731154,445.00
731164,510.00
731175,461.00
731186,570.00
731196,661.00
731206,660.00
731216,603.00
731226,654.00
731236,622.00
731246,404.00
731256,326.00
731266,369.00
731276,565.00
731286,605.00
731296,637.00
731306,642.00
731316,600.00
731326,643.00
731336,617.00
731346,616.00
731356,634.00
731366,675.00
731376,782.00
731386,723.00
731396,681.00
731406,686.00
731416,753.00
731426,694.00
731436,722.00
731446,656.00
731456,520.00
731466,512.00
731476,509.00
731486,531.00
731496,468.00
731506,657.00
731516,903.00
731526,865.00
731536,268.00
731546,126.00
731556,208.00
731566,45.00
731576,16.00
731586,75.00
731596,436.00
731606,531.00
731616,537.00
731626,442.00
731639,360.00
731654,245.00
731670,194.00
731686,346.00
731702,379.00
731718,398.00
731733,356.00
731749,260.00
731765,285.00
731781,394.00
731797,517.00
731813,629.00
731828,788.00
731844,780.00
731860,753.00
731876,644.00
731892,649.00
731907,679.00
731923,764.00
731939,973.00
731955,921.00
731971,164.00
731987,325.00
732002,531.00
732018,553.00
732034,468.00
732050,509.00
732066,642.00
732081,685.00
732097,712.00
732113,829.00
732129,835.00
732145,741.00
732161,698.00
732176,571.00
732192,581.00
732208,567.00
732224,541.00
732240,488.00
732255,530.00
732271,480.00
732287,474.00
732303,370.00
732319,336.00
732335,317.00
732350,429.00
732366,937.00
732382,54.00
732398,19.00
732414,17.00
732429,84.00
732445,289.00
732461,368.00
732477,476.00
732493,533.00
732509,631.00
732524,702.00
732540,723.00
732556,698.00
732572,621.00
732588,584.00
732603,581.00
732619,432.00
732635,397.00
732651,351.00
732667,308.00
732683,400.00
732698,391.00
732714,269.00
732730,317.00
732746,243.00
732762,273.00
732777,674.00
732793,996.00
732809,264.00
732825,387.00
732841,553.00
732857,643.00
732872,631.00
732888,621.00
732904,678.00
732920,686.00
732936,738.00
732952,711.00
732967,773.00
732983,612.00
732999,574.00
733015,590.00
733031,411.00
733046,451.00
733062,568.00
733078,509.00
733094,554.00
733110,556.00
733126,448.00
733141,267.00
733157,255.00
733173,289.00
733189,393.00
733205,895.00
733220,626.00
733236,261.00
733252,380.00
733268,497.00
733284,576.00
733300,552.00
733315,560.00
733331,549.00
733347,526.00
733363,531.00
733379,556.00
733394,568.00
733410,540.00
733426,505.00
733442,394.00
733458,362.00
733474,447.00
733489,489.00
733505,529.00
733521,579.00
733537,680.00
733553,602.00
733568,584.00
733584,574.00
733600,567.00
733616,747.00
733632,1024.00
733648,310.00
733663,213.00
733679,394.00
733695,475.00
733711,529.00
733727,405.00
733743,588.00
733758,564.00
733774,530.00
733790,486.00
733806,596.00
733822,596.00
733837,508.00
733853,470.00
733869,364.00
733885,370.00
733901,452.00
733917,521.00
733932,582.00
733948,511.00
733964,498.00
733980,457.00
733996,446.00
734011,456.00
734027,418.00
734043,750.00
734059,813.00
734152,538.00
734165,485.00
734176,450.00
734187,468.00
734198,468.00
734208,603.00
734266,670.00
734277,618.00
734287,547.00
734297,554.00
734307,570.00
734317,583.00
734327,586.00
734337,632.00
734347,678.00
734357,704.00
734367,685.00
734377,641.00
734387,626.00
734397,534.00
734407,591.00
734417,538.00
734427,584.00
734439,557.00
734454,355.00
734470,742.00
734486,375.00
734502,100.00
734518,410.00
734533,453.00
734928,22.00
734938,286.00
734948,497.00
734959,509.00
734969,529.00
734980,615.00
734990,632.00
735000,651.00
735010,641.00
735020,654.00
735030,632.00
735040,650.00
735050,648.00
735060,687.00
735070,702.00
735080,662.00
735090,578.00
735100,586.00
735110,604.00
735120,572.00
735130,548.00
735140,522.00
735150,548.00
735160,526.00
735170,520.00
735181,449.00
735191,391.00
735201,544.00
735211,433.00
735221,447.00
735231,471.00
735241,356.00
735251,280.00
735261,318.00
735271,336.00
735281,385.00
735291,284.00
735301,337.00
735311,572.00
735321,585.00
735331,38.00
735341,18.00
735351,17.00
735361,151.00
735371,293.00
735381,369.00
735391,434.00
735401,410.00
735411,446.00
735421,505.00
735431,617.00
735441,612.00
735451,650.00
735461,710.00
735471,749.00
735483,714.00
735498,724.00
735514,696.00
735530,585.00
735546,526.00
735562,542.00
735577,509.00
735593,404.00
735609,414.00
735625,393.00
735641,415.00
735657,478.00
735672,481.00
735688,552.00
735704,570.00
735720,724.00
735736,1024.00
735752,829.00
735767,414.00
735783,665.00
735799,740.00
735815,749.00
735831,662.00
735846,780.00
735862,801.00
735878,896.00
735894,944.00
735910,966.00
735926,759.00
735941,737.00
735957,726.00
735973,650.00
735989,654.00
736005,734.00
736020,581.00
736036,545.00
736052,432.00
736068,466.00
736084,533.00
736100,621.00
736115,618.00
736131,597.00
736147,1024.00
736163,1024.00
736179,436.00
736194,582.00
736210,715.00
736226,648.00
736242,632.00
736258,532.00
736274,645.00
736289,716.00
736305,898.00
736321,829.00
736337,747.00
736353,543.00
736368,553.00
736384,650.00
736400,600.00
736416,498.00
736432,548.00
736448,725.00
736463,869.00
736479,878.00
736495,714.00
736511,632.00
736527,603.00
736543,552.00
736558,591.00
736574,1024.00
736590,302.00
736606,175.00
736622,332.00
736637,410.00
736653,421.00
736669,409.00
736685,38.00
736701,416.00
736717,536.00
736732,561.00
736748,621.00
736764,510.00
736780,258.00
736796,226.00
736811,340.00
736827,555.00
736843,602.00
736859,566.00
736875,507.00
736891,544.00
736906,568.00
736922,560.00
736938,562.00
736954,562.00
736970,519.00
736985,840.00
737001,672.00
737017,158.00
737033,516.00
737049,619.00
737065,520.00
737080,537.00
737096,312.00
737112,397.00
737128,642.00
737144,682.00
737159,646.00
737175,698.00
737191,761.00
737207,765.00
737223,753.00
737239,660.00
737254,598.00
737270,570.00
737286,600.00
737302,586.00
737318,602.00
737333,485.00
737349,426.00
737365,339.00
737381,277.00
737397,570.00
737413,759.00
737428,20.00
737444,19.00
737460,252.00
737571,498.00
737581,525.00
737591,506.00
737601,518.00
737611,538.00
737621,540.00
737631,560.00
737641,596.00
737651,566.00
737661,556.00
737671,583.00
737681,590.00
737691,612.00
737701,628.00
737763,590.00
737774,670.00
737784,500.00
737794,447.00
737804,569.00
737814,896.00
737824,1024.00
737834,583.00
737844,246.00
737854,344.00
737864,462.00
737874,576.00
737887,638.00
737903,708.00
737919,750.00
737935,739.00
737950,763.00
737966,876.00
737982,898.00
737998,831.00
738065,523.00
738075,621.00
738085,598.00
738096,482.00
738106,550.00
738117,509.00
738128,351.00
738138,379.00
738149,465.00
738159,398.00
738172,284.00
738188,361.00
738204,318.00
738219,327.00
738235,705.00
738251,20.00
738267,18.00
738283,134.00
738298,355.00
738314,357.00
738330,364.00
738346,399.00
738362,444.00
738378,534.00
738393,594.00
738409,583.00
738425,596.00
738441,573.00
738457,474.00
738472,572.00
738488,684.00
738504,516.00
738520,394.00
738536,151.00
738552,189.00
738567,317.00
738583,384.00
738599,397.00
738615,478.00
738631,577.00
738647,1024.00
738662,1024.00
738678,411.00
738694,483.00
738710,657.00
738726,592.00
738741,658.00
738757,669.00
738773,678.00
738789,710.00
738805,748.00
738821,663.00
738836,682.00
738852,505.00
738868,583.00
738884,606.00
738900,544.00
738915,569.00
738931,572.00
738947,411.00
738963,473.00
738979,493.00
738995,453.00
739010,390.00
739026,369.00
739042,370.00
739058,709.00
739074,566.00
739090,355.00
739105,496.00
739121,622.00
739137,636.00
739153,673.00
739169,694.00
739184,681.00
739200,812.00
739216,861.00
739232,785.00
739248,714.00
739264,522.00
739279,602.00
739295,732.00
739311,645.00
739327,648.00
739343,708.00
739358,773.00
739374,750.00
739390,713.00
739406,626.00
739422,629.00
739438,559.00
739453,613.00
739469,1024.00
739485,686.00
739501,260.00
739517,453.00
739532,530.00
739548,475.00
739564,624.00
739580,607.00
739596,649.00
739612,712.00
739627,733.00
739643,800.00
739659,740.00
739675,582.00
739691,428.00
739706,456.00
739722,532.00
739738,644.00
739754,665.00
739770,721.00
739786,736.00
739801,696.00
739817,603.00
739833,484.00
739849,387.00
739865,511.00
739881,816.00
739896,295.00
739912,136.00
739928,420.00
739944,543.00
739960,466.00
739975,283.00
739991,218.00
740007,369.00
740023,528.00
740039,553.00
740055,646.00
740070,650.00
740086,618.00
740102,558.00
740118,553.00
740134,577.00
740149,593.00
740165,580.00
740181,567.00
740197,602.00
740213,528.00
740229,432.00
740244,356.00
740260,246.00
740276,378.00
740292,751.00
740308,19.00
740323,19.00
740339,233.00
740355,244.00
740371,330.00
740387,193.00
740403,164.00
740418,142.00
740434,362.00
740450,546.00
740466,636.00
740482,547.00
740497,487.00
740513,398.00
740529,459.00
740545,555.00
740561,519.00
740577,541.00
740592,542.00
740608,518.00
740665,726.00
740676,600.00
740686,556.00
740696,702.00
740706,417.00
740716,21.00
740726,20.00
740736,17.00
740751,372.00
740766,468.00
740782,522.00
740864,817.00
740874,703.00
740884,670.00
740894,654.00
740904,610.00
740914,584.00
740924,533.00
741257,713.00
741270,746.00
741280,742.00
741290,694.00
741300,650.00
741310,592.00
741320,573.00
741330,486.00
741340,470.00
741350,530.00
741360,508.00
741370,595.00
741380,676.00
741390,673.00
741400,670.00
741410,492.00
741420,388.00
741430,306.00
741441,418.00
741451,481.00
741461,553.00
741471,570.00
741481,523.00
741491,644.00
741501,970.00
741511,1024.00
741521,720.00
741531,329.00
741541,411.00
741551,536.00
741561,656.00
741571,694.00
741581,699.00
741591,706.00
741601,738.00
741611,712.00
741621,717.00
741631,739.00
741641,711.00
741651,771.00
741661,781.00
741671,825.00
741681,739.00
741691,722.00
741701,654.00
741711,651.00
741721,626.00
741731,592.00
741741,606.00
741751,475.00
741761,454.00
741771,536.00
741781,532.00
741791,516.00
741801,497.00
741811,554.00
741826,517.00
741842,364.00
741858,219.00
741874,234.00
741890,321.00
741905,783.00
741921,706.00
741937,134.00
741953,320.00
741969,476.00
741985,536.00
742000,574.00
742016,526.00
742032,505.00
742048,489.00
742064,576.00
742079,574.00
742095,667.00
742111,674.00
742127,613.00
742143,457.00
742159,356.00
742174,369.00
742190,402.00
742206,494.00
742222,601.00
742238,512.00
742254,600.00
742269,718.00
742285,826.00
742301,885.00
742317,1024.00
742333,390.00
742348,380.00
742364,480.00
742380,557.00
742396,569.00
742412,606.00
742427,597.00
742443,524.00
742459,638.00
742475,211.00
742491,293.00
742507,682.00
742522,598.00
742538,528.00
742554,566.00
742570,487.00
742586,368.00
742602,372.00
742617,404.00
742633,471.00
742649,499.00
742665,377.00
742681,277.00
742696,519.00
742712,1024.00
742728,529.00
742744,305.00
742760,501.00
742776,616.00
742791,593.00
742807,708.00
742823,773.00
742839,860.00
742855,673.00
742870,440.00
742886,334.00
742902,514.00
742918,583.00
742934,656.00
742950,615.00
742965,701.00
742981,739.00
742997,957.00
743013,932.00
743029,807.00
743044,693.00
743060,634.00
743076,634.00
743092,612.00
743108,981.00
743124,652.00
743139,228.00
743155,354.00
743171,417.00
743187,421.00
743203,389.00
743218,442.00
743234,498.00
743250,496.00
743266,567.00
743282,591.00
743298,463.00
743313,272.00
743329,367.00
743345,475.00
743361,583.00
743377,580.00
743392,583.00
743408,739.00
743424,735.00
743440,680.00
743456,639.00
743472,601.00
743487,511.00
743503,847.00
743519,876.00
743535,121.00
743551,362.00
743567,501.00
743582,454.00
743598,547.00
743614,518.00
743630,523.00
743646,597.00
743661,723.00
743677,750.00
743693,782.00
743709,862.00
743725,823.00
743741,835.00
743756,772.00
743772,816.00
743788,819.00
743804,820.00
743820,818.00
743835,760.00
743851,738.00
743867,693.00
743883,688.00
743899,873.00
743972,998.00
743983,1008.00
743993,1000.00
744003,940.00
744013,916.00
744023,901.00
744033,898.00
744043,894.00
744053,975.00
744063,948.00
744073,1024.00
744089,1024.00
744104,874.00
744120,811.00
744136,858.00
744152,816.00
744168,843.00
744184,773.00
744199,709.00
744215,726.00
744231,644.00
744247,585.00
744263,585.00
744278,808.00
744294,789.00
744310,1024.00
744326,510.00
744342,21.00
744358,264.00
744373,472.00
744389,504.00
744405,480.00
744421,631.00
744437,758.00
744452,825.00
744531,498.00
744542,462.00
744552,469.00
744562,462.00
744572,433.00
744582,442.00
744592,429.00
744602,418.00
744612,338.00
744622,344.00
745458,361.00
745470,188.00
745480,93.00
745490,352.00
745500,746.00
745510,593.00
745520,100.00
745530,147.00
745540,338.00
745550,476.00
745560,546.00
745570,577.00
745581,646.00
745591,697.00
745601,708.00
745612,769.00
745622,768.00
745632,785.00
745642,812.00
745652,774.00
745662,858.00
745672,797.00
745682,718.00
745692,655.00
745702,618.00
745712,580.00
745722,596.00
745732,658.00
745742,665.00
745752,594.00
745762,576.00
745772,626.00
745782,577.00
745792,633.00
745802,660.00
745812,614.00
745822,651.00
745832,618.00
745842,615.00
745852,622.00
745862,622.00
745872,600.00
745882,763.00
745892,1024.00
745902,1024.00
745912,649.00
745922,333.00
745932,425.00
745942,545.00
745952,597.00
745962,592.00
745972,616.00
745982,583.00
745992,588.00
746003,557.00
746019,560.00
746034,653.00
746050,643.00
746066,526.00
746082,544.00
746098,374.00
746113,520.00
746129,420.00
746145,428.00
746161,480.00
746177,348.00
746193,198.00
746208,205.00
746224,268.00
746240,380.00
746256,386.00
746272,380.00
746288,746.00
746303,343.00
746319,79.00
746335,267.00
746351,386.00
746367,368.00
746382,340.00
746398,319.00
746414,402.00
746430,538.00
746446,787.00
746462,672.00
746477,540.00
746493,375.00
746509,18.00
746525,238.00
746541,403.00
746556,438.00
746572,496.00
746588,560.00
746604,547.00
746620,552.00
746636,603.00
746651,616.00
746667,643.00
746683,1024.00
746699,473.00
746715,193.00
746730,318.00
746746,518.00
746762,498.00
746778,457.00
746794,521.00
746810,608.00
746825,205.00
746841,568.00
746857,709.00
746873,544.00
746889,495.00
746904,382.00
746920,243.00
746936,300.00
746952,345.00
746968,421.00
746984,498.00
746999,343.00
747015,317.00
747031,354.00
747047,487.00
747063,595.00
747079,1024.00
747094,417.00
747110,183.00
747126,352.00
747142,448.00
747158,546.00
747173,656.00
747189,648.00
747205,645.00
747221,617.00
747237,525.00
747253,544.00
747268,603.00
747284,597.00
747300,542.00
747316,651.00
747332,653.00
747347,662.00
747363,675.00
747379,648.00
747395,634.00
747411,588.00
747427,553.00
747442,480.00
747458,655.00
747474,1024.00
747490,210.00
747506,226.00
747521,343.00
747537,410.00
747553,472.00
747569,430.00
747585,475.00
747601,446.00
747616,533.00
747632,606.00
747648,554.00
747664,420.00
747680,313.00
747695,363.00
747711,384.00
747727,460.00
747743,498.00
747759,540.00
747775,565.00
747790,544.00
747806,566.00
747822,465.00
747838,435.00
747854,628.00
747869,868.00
747885,19.00
747901,18.00
747917,340.00
747933,422.00
747949,516.00
747964,579.00
747980,555.00
747996,629.00
748012,710.00
748119,786.00
748130,833.00
748141,788.00
748151,811.00
748162,753.00
748173,727.00
748183,654.00
748193,630.00
748203,565.00
748213,562.00
748223,550.00
748233,507.00
748243,600.00
748253,805.00
748263,1024.00
748273,492.00
748283,80.00
748297,118.00
748312,397.00
748328,589.00
748344,456.00
748360,550.00
748376,639.00
748392,512.00
748407,591.00
748589,545.00
748599,530.00
748609,445.00
748619,534.00
748629,448.00
748639,780.00
748649,1024.00
748659,1024.00
748669,352.00
749221,781.00
749234,792.00
749245,756.00
749255,720.00
749267,666.00
749278,681.00
749288,560.00
749298,549.00
749308,528.00
749318,532.00
749328,601.00
749338,585.00
749348,653.00
749358,662.00
749368,561.00
749378,517.00
749388,500.00
749398,452.00
749408,357.00
749418,496.00
749428,820.00
749438,921.00
749448,265.00
749458,188.00
749468,301.00
749478,378.00
749488,490.00
749498,556.00
749508,564.00
749518,565.00
749528,556.00
749538,573.00
749548,598.00
749558,634.00
749568,694.00
749578,729.00
749588,715.00
749598,783.00
749608,708.00
749618,655.00
749628,651.00
749638,577.00
749648,570.00
749658,505.00
749668,549.00
749678,564.00
749688,532.00
749698,529.00
749708,542.00
749718,549.00
749728,594.00
749738,533.00
749748,422.00
749758,400.00
749768,469.00
749784,463.00
749799,397.00
749815,873.00
749831,619.00
749847,19.00
749863,240.00
749878,430.00
749894,526.00
749910,597.00
749926,620.00
749942,638.00
749958,740.00
749973,820.00
749989,826.00
750005,832.00
750021,763.00
750037,639.00
750052,624.00
750068,698.00
750084,854.00
750100,866.00
750116,888.00
750132,763.00
750147,609.00
750163,494.00
750179,538.00
750195,712.00
750211,1024.00
750227,821.00
750242,507.00
750258,742.00
750274,871.00
750290,924.00
750306,758.00
750321,741.00
750337,716.00
750353,797.00
750369,734.00
750385,742.00
750401,712.00
750416,619.00
750432,591.00
750448,739.00
750464,776.00
750480,509.00
750495,445.00
750511,561.00
750527,436.00
750543,314.00
750559,193.00
750575,76.00
750590,325.00
750606,751.00
750622,17.00
750638,18.00
750654,60.00
750669,170.00
750685,267.00
750701,453.00
750717,514.00
750733,532.00
750749,566.00
750764,589.00
750780,565.00
750796,620.00
750812,625.00
750828,554.00
750843,453.00
750859,800.00
750875,592.00
750891,571.00
750907,592.00
750923,589.00
750938,528.00
750954,686.00
750970,673.00
750986,994.00
751002,846.00
751017,364.00
751033,532.00
751049,629.00
751065,577.00
751081,589.00
751097,617.00
751112,651.00
751128,726.00
751144,771.00
751160,789.00
751176,775.00
751192,758.00
751207,640.00
751223,595.00
751239,642.00
751255,689.00
751271,607.00
751286,548.00
751302,370.00
751318,378.00
751334,411.00
751350,472.00
751366,704.00
751381,897.00
751397,279.00
751413,295.00
751429,497.00
751445,569.00
751460,585.00
751476,588.00
751492,525.00
751508,514.00
751524,580.00
751540,574.00
751555,598.00
751571,592.00
751587,508.00
751603,360.00
751619,393.00
751635,494.00
751650,583.00
751666,614.00
751704,529.00
751715,519.00
751725,497.00
751735,535.00
751745,741.00
751761,1024.00
751777,276.00
751793,258.00
751809,379.00
751882,406.00
751893,548.00
751903,591.00
751913,617.00
751923,570.00
752021,242.00
752032,327.00
752042,386.00
752052,445.00
752062,460.00
752072,458.00
752082,457.00
752092,398.00
752103,427.00
752114,360.00
752126,521.00
752137,806.00
752147,866.00
752157,258.00
752167,135.00
752177,198.00
752187,224.00
752197,224.00
752207,234.00
752217,316.00
752227,321.00
752237,269.00
752251,498.00
752267,525.00
752283,548.00
752299,522.00
752315,559.00
752331,316.00
752346,303.00
752362,367.00
752378,427.00
752394,489.00
752410,518.00
752425,641.00
752441,716.00
752457,786.00
752473,613.00
752489,595.00
752505,662.00
752520,1024.00
752536,940.00
752552,336.00
752568,502.00
752584,604.00
752600,580.00
752615,655.00
752631,721.00
752647,384.00
752663,748.00
752679,793.00
752694,796.00
752710,818.00
752726,684.00
752742,581.00
752758,524.00
752774,576.00
752789,723.00
752805,701.00
752821,703.00
752837,591.00
752853,514.00
752868,626.00
752884,689.00
752900,1024.00
752916,1024.00
752932,321.00
752948,428.00
752963,629.00
752979,711.00
752995,682.00
753011,720.00
753027,645.00
753042,373.00
753058,437.00
753074,569.00
753090,739.00
753106,652.00
753122,570.00
753137,592.00
753153,650.00
753169,655.00
753185,664.00
753201,596.00
753217,495.00
753232,478.00
753248,397.00
753264,373.00
753280,594.00
753296,801.00
753311,18.00
753327,84.00
753343,232.00
753359,255.00
753375,285.00
753391,391.00
753407,388.00
753422,438.00
753438,448.00
753454,364.00
753470,218.00
753485,296.00
753501,327.00
753517,392.00
753533,450.00
753549,482.00
753565,495.00
753580,490.00
753596,426.00
753612,393.00
753628,397.00
753644,317.00
753659,417.00
753675,715.00
753691,73.00
753707,156.00
753723,369.00
753739,372.00
753754,303.00
753770,265.00
753786,362.00
753802,514.00
753818,662.00
753833,637.00
753849,668.00
753865,762.00
753881,740.00
753897,793.00
753913,768.00
753928,720.00
753944,699.00
753960,676.00
753976,581.00
753992,516.00
754007,427.00
754023,399.00
754039,402.00
754055,769.00
754071,379.00
754087,15.00
754102,229.00
754118,514.00
754134,498.00
754150,556.00
754166,449.00
754182,410.00
754197,378.00
754213,482.00
754229,537.00
754245,490.00
754261,406.00
754276,364.00
754292,348.00
754308,438.00
754324,546.00
754340,590.00
754356,586.00
754371,454.00
754387,388.00
754403,381.00
754419,474.00
754435,788.00
754450,1024.00
754466,216.00
754482,184.00
754498,182.00
754514,225.00
754530,399.00
754545,488.00
754837,543.00
754848,90.00
754858,184.00
754868,279.00
754878,354.00
754888,338.00
754898,279.00
754908,218.00
754918,241.00
754928,281.00
754938,366.00
754949,420.00
754959,480.00
754969,559.00
754979,655.00
755043,568.00
755054,540.00
755064,567.00
755074,546.00
755084,547.00
755094,540.00
755104,522.00
755114,490.00
755124,442.00
755134,441.00
755145,436.00
755156,427.00
755167,448.00
755177,370.00
755187,372.00
755197,572.00
755207,853.00
755217,440.00
755227,43.00
755237,75.00
755247,207.00
755257,353.00
755267,396.00
755277,466.00
755287,522.00
755297,542.00
755307,589.00
755317,600.00
755327,669.00
755337,706.00
755347,759.00
755357,726.00
755367,790.00
755377,761.00
755387,732.00
755397,680.00
755407,665.00
755417,650.00
755427,603.00
755437,567.00
755447,566.00
755457,549.00
755467,629.00
755479,609.00
755495,534.00
755510,573.00
755526,531.00
755542,425.00
755558,449.00
755574,616.00
755590,1024.00
755605,230.00
755621,205.00
755637,319.00
755653,399.00
755669,487.00
755684,560.00
755700,612.00
755716,639.00
755732,733.00
755748,746.00
755764,756.00
755779,716.00
755795,624.00
755811,454.00
755827,485.00
755843,500.00
755858,523.00
755874,653.00
755890,641.00
755906,545.00
755922,476.00
755938,408.00
755953,380.00
755969,934.00
755985,667.00
756001,246.00
756017,537.00
756032,653.00
756048,716.00
756064,765.00
756080,817.00
756096,818.00
756112,872.00
756127,818.00
756143,786.00
756159,708.00
756175,672.00
756191,727.00
756206,629.00
756222,716.00
756238,759.00
756254,594.00
756270,665.00
756286,618.00
756301,516.00
756317,459.00
756333,302.00
756349,458.00
756365,816.00
756380,16.00
756396,38.00
756412,228.00
756428,224.00
756444,349.00
756460,406.00
756677,259.00
756687,304.00
756697,409.00
756707,384.00
756717,312.00
756727,424.00
756737,763.00
756747,945.00
756757,378.00
756767,120.00
756777,217.00
756787,352.00
756797,411.00
756807,468.00
756819,480.00
756829,558.00
756839,569.00
756849,573.00
756859,610.00
756869,641.00
756879,636.00
756889,661.00
756899,729.00
756909,708.00
756919,645.00
756929,619.00
756939,692.00
756949,682.00
756959,753.00
756969,645.00
756979,507.00
756989,493.00
756999,557.00
757009,601.00
757019,585.00
757029,589.00
757045,469.00
757061,273.00
757077,97.00
757092,208.00
757108,238.00
757124,581.00
757140,241.00
757156,18.00
757171,232.00
757187,402.00
757203,536.00
757219,569.00
757235,604.00
757251,598.00
757266,593.00
757282,668.00
757298,655.00
757314,721.00
757330,645.00
757345,537.00
757361,426.00
757377,522.00
757393,637.00
757409,630.00
757425,530.00
757440,466.00
757456,520.00
757472,543.00
757488,568.00
757504,969.00
757519,709.00
757535,320.00
757551,512.00
757567,660.00
757583,628.00
757599,708.00
757614,696.00
757630,679.00
757646,664.00
757662,785.00
757678,798.00
757694,670.00
757709,618.00
757725,641.00
757741,471.00
757757,592.00
757773,505.00
757788,468.00
757804,352.00
757820,312.00
757836,382.00
757852,418.00
757868,482.00
757883,893.00
757899,485.00
757915,226.00
757931,373.00
757947,471.00
757962,502.00
757978,463.00
757994,429.00
758010,356.00
758026,571.00
758042,612.00
758057,626.00
758073,655.00
758089,510.00
758105,473.00
758121,492.00
758136,585.00
758152,729.00
758168,798.00
758184,816.00
758200,778.00
758216,728.00
758231,726.00
758247,792.00
758263,1024.00
758279,712.00
758295,414.00
758310,517.00
758326,592.00
758342,612.00
758358,604.00
758374,592.00
758390,745.00
758405,631.00
758421,737.00
758437,757.00
758453,727.00
758469,748.00
758484,617.00
758500,481.00
758516,488.00
758532,561.00
758548,726.00
758564,723.00
758579,626.00
758595,484.00
758611,381.00
758627,518.00
758643,1000.00
758658,531.00
758674,176.00
758690,322.00
758706,390.00
758722,450.00
758738,460.00
758753,495.00
758769,550.00
758785,488.00
758801,309.00
758817,471.00
758833,565.00
758848,622.00
758864,586.00
758880,634.00
758896,676.00
758912,769.00
758927,846.00
758943,866.00
758959,864.00
758975,665.00
758991,606.00
759007,464.00
759022,897.00
759038,627.00
759054,306.00
759070,364.00
759086,368.00
759101,281.00
759117,380.00
759133,367.00
759149,521.00
759165,500.00
759181,573.00
759196,601.00
759212,466.00
759228,350.00
759244,356.00
759260,444.00
759275,509.00
759291,505.00
759307,451.00
759323,484.00
759339,413.00
759355,498.00
759370,485.00
759386,514.00
759402,841.00
759418,478.00
759434,126.00
759449,269.00
759465,524.00
759481,572.00
759497,484.00
759513,448.00
759529,424.00
759544,498.00
759560,586.00
759576,651.00
759592,723.00
759608,689.00
759623,613.00
759639,664.00
759655,704.00
759734,535.00
759745,506.00
759755,470.00
759765,510.00
759775,764.00
759785,932.00
759795,618.00
759805,99.00
759815,46.00
759825,325.00
759835,415.00
759845,498.00
759861,525.00
759877,500.00
759892,545.00
759908,529.00
759987,509.00
759998,526.00
760008,458.00
760018,470.00
760028,488.00
760038,508.00
760048,555.00
760058,638.00
760068,628.00
760078,585.00
760088,506.00
760098,429.00
760114,429.00
760130,397.00
760511,577.00
760524,496.00
760534,610.00
760544,915.00
760554,988.00
760564,313.00
760574,20.00
760584,135.00
760594,385.00
760604,630.00
760614,768.00
760624,756.00
760634,680.00
760644,556.00
760654,471.00
760664,381.00
760674,426.00
760684,460.00
760694,449.00
760704,463.00
760714,507.00
760724,506.00
760734,535.00
760744,498.00
760754,436.00
760764,464.00
760774,468.00
760784,493.00
760794,603.00
760804,651.00
760814,701.00
760824,721.00
760834,720.00
760844,680.00
760854,628.00
760864,567.00
760874,560.00
760884,540.00
760894,562.00
760904,492.00
760914,691.00
760924,1001.00
760934,1024.00
760944,583.00
760954,242.00
760964,281.00
760974,424.00
760984,470.00
760994,397.00
761004,464.00
761014,414.00
761024,490.00
761034,621.00
761044,696.00
761054,641.00
761064,680.00
761079,760.00
761095,836.00
761110,753.00
761126,723.00
761142,676.00
761158,692.00
761174,652.00
761190,705.00
761205,689.00
761221,644.00
761237,566.00
761253,578.00
761269,519.00
761284,460.00
761300,840.00
761316,879.00
761332,168.00
761348,324.00
761364,425.00
761379,469.00
761395,410.00
761411,494.00
761427,480.00
761443,637.00
761458,721.00
761474,811.00
761490,679.00
761506,741.00
761522,643.00
761538,640.00
761553,594.00
761569,578.00
761585,523.00
761601,430.00
761617,326.00
761632,344.00
761648,408.00
761664,497.00
761680,831.00
761696,499.00
761712,160.00
761727,296.00
761743,437.00
761759,502.00
761775,606.00
761791,663.00
761807,694.00
761822,753.00
761838,775.00
761854,774.00
761870,730.00
761886,663.00
761901,600.00
761917,600.00
761933,583.00
761949,616.00
761965,594.00
761981,617.00
761996,516.00
762012,534.00
762028,449.00
762044,553.00
762060,868.00
762075,596.00
762091,218.00
762107,290.00
762123,390.00
762139,416.00
762155,565.00
762170,620.00
762186,704.00
762202,681.00
762218,716.00
762234,737.00
762249,696.00
762265,552.00
762281,398.00
762297,457.00
762313,442.00
762329,552.00
762344,616.00
762360,816.00
762376,654.00
762392,672.00
762408,596.00
762423,369.00
762439,806.00
762455,799.00
762471,303.00
762487,555.00
762503,726.00
762518,808.00
762534,848.00
762550,922.00
762566,1012.00
762582,984.00
762597,1024.00
762613,958.00
762629,848.00
762645,749.00
762661,693.00
762677,664.00
762692,660.00
762708,850.00
762724,740.00
762740,633.00
762756,686.00
762772,685.00
762787,589.00
762803,482.00
762819,672.00
762835,532.00
762851,20.00
762866,152.00
762882,424.00
762898,440.00
762914,349.00
762930,316.00
762946,424.00
762961,535.00
762977,640.00
762993,594.00
763009,610.00
763025,570.00
763040,475.00
763056,545.00
763072,680.00
763088,645.00
763104,494.00
763120,550.00
763135,457.00
763151,379.00
763167,306.00
763236,352.00
763248,400.00
763258,473.00
763268,520.00
763278,558.00
763288,478.00
763298,505.00
763308,556.00
763318,618.00
763328,638.00
763341,653.00
763357,701.00
763373,685.00
763388,632.00
763404,574.00
763420,546.00
763436,606.00
763452,581.00
763468,697.00
763483,688.00
763499,590.00
763515,529.00
763531,386.00
763547,240.00
763678,744.00
763689,765.00
763699,765.00
763709,781.00
763719,798.00
763729,782.00
763739,759.00
763749,717.00
763759,702.00
763852,533.00
763863,524.00
763873,513.00
763883,448.00
763893,476.00
763903,488.00
763913,481.00
763923,439.00
763933,473.00
763945,780.00
763956,1024.00
763966,523.00
763976,169.00
763986,229.00
763996,310.00
764006,415.00
764016,462.00
764026,453.00
764036,492.00
764046,507.00
764056,529.00
764066,501.00
764076,500.00
764086,533.00
764096,570.00
764106,576.00
764116,573.00
764132,465.00
764148,468.00
764164,521.00
764180,512.00
764195,520.00
764211,439.00
764227,476.00
764243,454.00
764259,321.00
764274,194.00
764290,184.00
764306,288.00
764322,813.00
764338,609.00
764354,324.00
764369,387.00
764385,565.00
764401,596.00
764417,604.00
764433,632.00
764448,620.00
764464,578.00
764480,540.00
764496,516.00
764512,570.00
764528,513.00
764543,538.00
764559,547.00
764575,573.00
764591,606.00
764607,624.00
764622,606.00
764638,567.00
764654,584.00
764670,692.00
764686,807.00
764702,1024.00
764717,505.00
764733,408.00
764749,556.00
764765,580.00
764781,600.00
764796,606.00
764812,559.00
764828,632.00
764844,661.00
764860,690.00
764876,835.00
764891,669.00
764907,554.00
764923,626.00
764939,640.00
764955,557.00
764970,529.00
764986,579.00
765002,392.00
765018,422.00
765034,464.00
765050,463.00
765065,818.00
765081,897.00
765097,243.00
765113,356.00
765129,472.00
765144,426.00
765160,423.00
765176,402.00
765192,488.00
765208,509.00
765224,742.00
765239,843.00
765255,646.00
765271,605.00
765287,408.00
765303,256.00
765318,435.00
765334,543.00
765350,655.00
765366,580.00
765382,571.00
765398,522.00
765413,572.00
765429,761.00
765445,1024.00
765461,478.00
765477,327.00
765493,428.00
765508,516.00
765524,518.00
765540,524.00
765556,474.00
765572,544.00
765587,632.00
765603,374.00
765619,559.00
765635,733.00
765651,643.00
765667,521.00
765682,528.00
765698,505.00
765714,441.00
765730,350.00
765746,402.00
765762,441.00
765777,355.00
765793,274.00
765809,763.00
765825,853.00
765841,325.00
765856,439.00
765872,576.00
765888,555.00
765904,498.00
765920,685.00
765936,754.00
765951,835.00
765967,685.00
765983,583.00
765999,484.00
766015,514.00
766030,600.00
766046,680.00
766062,557.00
766078,605.00
766094,686.00
766110,641.00
766125,733.00
766141,574.00
766157,497.00
766173,614.00
766189,998.00
766204,223.00
766220,202.00
766236,379.00
766252,480.00
766268,444.00
766284,425.00
766299,546.00
766315,622.00
766331,644.00
766347,639.00
766363,585.00
766379,516.00
766394,426.00
766410,317.00
766426,282.00
766442,403.00
766458,573.00
766473,583.00
766489,522.00
766505,513.00
766521,449.00
766558,941.00
766569,513.00
766579,70.00
766589,64.00
766600,115.00
766616,267.00
766632,374.00
766647,487.00
766663,538.00
766679,557.00
766695,577.00
766711,542.00
766727,486.00
766742,494.00
766758,526.00
766774,562.00
766790,641.00
766806,662.00
766822,753.00
766837,825.00
766873,630.00
766883,627.00
766893,565.00
766903,507.00
766916,643.00
766932,973.00
766996,418.00
767006,461.00
767016,356.00
767026,370.00
767036,416.00
767046,422.00
767056,512.00
767066,579.00
767076,594.00
767090,549.00
767106,457.00
767122,336.00
767138,442.00
767154,530.00
767170,601.00
767185,650.00
767201,600.00
767217,606.00
767233,535.00
767249,477.00
767264,436.00
767280,380.00
767296,728.00
767312,842.00
767328,128.00
767344,293.00
767359,449.00
767375,619.00
767391,545.00
767407,474.00
767423,457.00
767438,458.00
767454,685.00
767470,774.00
767486,720.00
767502,705.00
767518,714.00
767533,703.00
767549,789.00
767565,837.00
767581,735.00
767597,751.00
767613,592.00
767628,590.00
767644,595.00
767660,593.00
767676,922.00
767692,609.00
767707,205.00
767723,460.00
767739,386.00
767755,583.00
767771,528.00
767787,510.00
767802,596.00
767818,549.00
767834,446.00
767850,494.00
767866,542.00
767881,589.00
767897,571.00
767913,522.00
767929,564.00
767945,594.00
767961,696.00
767976,620.00
767992,560.00
768008,497.00
768024,414.00
768040,483.00
768055,817.00
768071,242.00
768087,233.00
768103,373.00
768119,510.00
768135,499.00
768150,538.00
768166,593.00
768182,637.00
768198,715.00
768214,756.00
768230,765.00
768245,723.00
768261,624.00
768277,629.00
768293,621.00
768309,642.00
768324,670.00
768340,644.00
768356,557.00
768372,445.00
768388,501.00
768404,392.00
768419,602.00
768435,811.00
768451,149.00
768467,329.00
768483,525.00
768498,524.00
768514,505.00
768530,444.00
768546,385.00
768562,492.00
768578,632.00
768593,667.00
768609,694.00
768625,546.00
768641,492.00
768657,477.00
768672,536.00
768688,497.00
768704,453.00
768720,430.00
768736,328.00
768752,356.00
768767,382.00
768783,531.00
768799,891.00
768815,888.00
768831,225.00
768847,291.00
768862,418.00
768878,543.00
768894,615.00
768910,681.00
768926,745.00
768941,778.00
768957,787.00
768973,757.00
768989,751.00
769005,673.00
769021,627.00
769036,667.00
769052,649.00
769068,631.00
769084,688.00
769100,697.00
769115,597.00
769131,582.00
769147,536.00
769163,506.00
769179,1018.00
769195,382.00
769210,161.00
769226,307.00
769242,325.00
769258,209.00
769274,244.00
769290,366.00
769305,480.00
769321,670.00
769337,690.00
769353,628.00
769369,602.00
769384,650.00
769400,570.00
769416,525.00
769432,494.00
769448,481.00
769464,485.00
769479,444.00
769495,559.00
769511,494.00
769527,352.00
769543,458.00
769558,914.00
769574,271.00
769590,207.00
769606,403.00
769622,538.00
769638,603.00
769653,614.00
769669,691.00
769685,702.00
769701,690.00
769717,735.00
769732,679.00
769748,653.00
769764,541.00
769780,553.00
769796,530.00
769812,592.00
769827,582.00
769843,588.00
769859,734.00
769875,567.00
769891,546.00
769906,451.00
769922,817.00
769938,913.00
769954,51.00
769970,202.00
769986,422.00
770001,439.00
770017,531.00
770033,559.00
770049,662.00
770065,627.00
770080,757.00
770096,654.00
