275959,39.32
275970,39.96
275980,38.99
275990,39.64
276000,39.64
276059,39.96
276069,39.96
276079,40.61
276089,40.28
276100,40.61
276111,40.28
276122,39.32
276134,40.28
276144,40.61
276154,40.28
276165,39.96
276175,39.96
276185,39.96
276195,40.28
276205,40.28
276215,40.28
276225,40.61
276238,40.28
276254,40.61
276270,39.96
276286,40.28
276301,40.28
276317,40.28
276333,40.61
276349,39.64
276365,39.96
276380,39.96
276396,39.32
276412,39.96
276428,40.28
276444,39.96
276460,39.64
276475,40.28
276491,40.28
276507,40.28
276523,40.28
276539,40.28
276555,40.61
276570,40.61
276586,40.61
276602,40.28
276618,40.28
276634,40.28
276649,39.64
276665,40.93
276681,40.93
276697,39.96
276713,40.28
276729,40.28
276744,40.28
276760,39.96
276776,40.28
276792,40.28
276808,40.28
276823,40.28
276839,39.96
276855,39.96
276871,39.96
276887,39.96
276903,39.64
276918,39.96
276934,40.28
276950,39.96
276966,40.28
276982,39.96
276997,39.96
277013,39.96
277029,40.28
277045,40.28
277061,40.93
277077,40.28
277092,40.61
277108,40.61
277124,40.28
277140,39.64
277156,39.64
277171,39.96
277187,40.28
277203,40.28
277219,40.61
277235,40.61
277251,40.28
277266,40.28
277282,40.28
277298,40.28
277314,40.28
277330,40.93
277346,39.96
277361,39.96
277377,40.28
277393,40.61
277409,40.61
277425,40.61
277440,40.61
277456,40.28
277472,40.28
277488,40.61
277504,40.28
277520,40.28
277535,40.93
277551,40.28
277567,40.93
277583,40.28
277599,40.28
277614,40.28
277630,39.96
277646,40.28
277662,40.28
277678,39.96
277694,40.28
277709,40.28
277725,40.28
277741,40.28
277757,40.61
277773,40.61
277788,40.93
277804,40.28
277820,40.61
277836,40.61
277852,40.28
277868,40.61
277883,40.93
277899,40.61
277915,40.61
277931,40.28
277947,40.61
277962,40.28
277978,40.28
277994,40.61
278010,40.61
278026,39.96
278042,39.96
278057,40.61
278073,40.93
278089,40.61
278105,40.61
278121,40.93
278136,40.61
278152,41.25
278168,41.25
278184,40.28
278200,39.32
278216,40.28
278231,40.93
278247,40.61
278263,40.93
278279,40.28
278295,40.93
278310,39.96
278326,40.28
278342,40.28
278358,39.96
278374,40.61
278390,40.28
278405,40.61
278421,40.61
278437,40.61
278453,39.96
278469,40.28
278484,40.28
278500,40.28
278516,40.28
278532,40.93
278548,40.28
278564,40.93
278579,40.28
278595,38.99
278611,39.32
278627,33.84
278643,22.24
278658,39.96
278674,23.53
278690,29.33
278706,39.32
278722,39.32
278738,38.03
278753,36.74
278769,39.64
278785,38.99
278801,35.45
278817,36.42
278833,39.32
278848,39.32
278864,39.64
278880,39.32
278896,37.38
278912,29.00
278927,29.65
278943,29.97
278959,29.65
278975,34.16
278991,29.00
279007,29.97
279022,27.07
279038,26.10
279054,30.94
279070,23.85
279086,23.20
279101,24.81
279117,38.99
279133,39.96
279149,39.96
279165,40.28
279181,39.96
279196,40.28
279212,40.61
279228,40.28
279244,40.28
279260,39.96
279275,40.61
279291,40.28
279307,40.93
279323,40.61
279339,40.28
279355,40.28
279370,39.96
279386,39.96
279402,39.96
279418,39.96
279434,40.28
279449,39.96
279465,39.96
279481,40.28
279497,39.96
279513,40.28
279529,40.28
279544,39.96
279560,39.96
279576,40.28
279592,40.61
279608,40.61
279623,40.28
279639,40.28
279655,39.32
279671,40.28
279687,39.96
279703,39.32
279718,39.64
279734,39.96
279750,39.64
279766,39.32
279782,39.96
279797,39.96
279813,40.61
279829,41.57
279845,40.93
279861,25.46
279877,23.20
279892,22.56
279908,22.24
279924,41.25
279940,40.61
279956,40.93
279971,29.00
279987,40.93
280003,39.96
280019,39.64
280035,39.64
280051,39.64
280066,40.28
280082,40.93
280098,40.93
280114,40.61
280130,40.93
280145,40.61
280161,39.64
280177,39.32
280193,39.64
280209,39.96
280225,39.64
280240,39.64
280256,39.64
280272,32.23
280288,39.64
280304,39.96
280319,39.32
280335,39.64
280351,39.64
280367,39.64
280383,39.64
280399,39.32
280414,39.64
280430,39.64
280446,39.64
280462,39.64
280478,39.96
280493,40.61
280509,40.61
280525,41.25
280541,40.93
280557,40.93
280573,40.93
280588,40.93
280604,40.93
280620,40.93
280636,40.61
280652,40.93
280667,40.93
280683,40.93
280699,41.57
280715,41.25
280731,40.93
280747,40.28
280762,40.93
280778,40.61
280794,41.25
280810,40.93
280826,40.93
280841,41.25
280857,40.61
280873,41.25
280889,40.28
280905,40.61
280921,40.93
280936,40.61
280952,41.25
280968,41.57
280984,41.25
281000,40.93
281015,41.57
281031,41.57
281047,41.25
281063,40.28
281079,40.28
281095,40.28
281110,40.28
281126,40.28
281142,40.28
281158,40.28
281174,40.28
281190,40.28
281205,39.64
281221,40.28
281237,40.61
281253,40.28
281269,40.28
281284,40.93
281300,40.28
281316,40.28
281332,39.96
281348,39.96
281363,39.64
281379,38.99
281395,39.64
281411,39.64
281427,39.64
281443,39.96
281458,40.61
281474,40.93
281490,41.25
281506,40.61
281522,39.96
281537,39.96
281553,39.96
281569,39.64
281585,40.28
281601,39.96
281617,39.96
281632,40.28
281648,40.28
281664,40.61
281680,40.28
281696,40.61
281711,40.28
281727,39.96
281743,39.96
281759,39.64
281775,39.96
281791,39.64
281806,40.28
281822,40.61
281838,40.93
281854,40.28
281870,40.61
281886,40.28
281901,39.96
281917,39.96
281933,39.96
281949,39.96
281965,40.93
281980,40.28
281996,40.93
282012,40.61
282028,40.28
282044,40.61
282060,40.28
282075,40.61
282091,40.93
282107,40.28
282123,40.28
282139,40.28
282154,40.61
282170,40.28
282186,40.93
282202,39.96
282218,39.96
282234,40.28
282249,39.96
282265,40.61
282281,40.28
282297,40.28
282313,40.61
282328,40.61
282344,40.61
282360,40.93
282376,41.25
282392,41.57
282408,41.25
282423,40.93
282439,41.25
282455,40.93
282471,40.28
282487,41.25
282502,40.61
282518,40.61
282534,40.61
282550,40.93
282566,41.25
282582,40.28
282597,40.61
282613,40.61
282629,40.61
282645,40.93
282661,40.93
282676,40.93
282692,40.61
282708,40.93
282724,40.61
282740,40.61
282756,40.28
282771,40.28
282787,40.61
282803,40.61
282819,40.61
282835,40.61
282850,40.61
282866,40.93
282882,40.93
282898,40.28
282914,40.28
282930,40.28
282945,40.61
282961,40.61
282977,40.61
282993,40.28
283009,40.28
283024,40.61
283040,39.96
283056,40.28
283072,39.96
283088,40.28
283104,39.96
283119,40.28
283135,40.61
283151,40.28
283167,40.61
283183,40.61
283199,39.96
283214,39.64
283230,39.96
283246,40.28
283262,39.96
283278,40.61
283293,40.28
283309,40.28
283325,40.61
283341,40.28
283357,40.61
283373,39.96
283388,40.28
283404,40.61
283420,40.61
283436,40.61
283452,40.93
283467,40.93
283483,40.93
283499,40.61
283515,39.96
283531,40.28
283547,40.28
283562,40.28
283578,40.93
283594,40.93
283610,39.64
283626,39.64
283641,39.96
283657,39.96
283673,40.28
283689,40.28
283705,40.28
283721,39.96
283736,40.28
283752,40.28
283768,40.61
283784,41.25
283800,41.25
283816,41.25
283831,41.57
283847,40.61
283863,40.61
283879,40.28
283895,39.96
283910,39.96
283926,40.28
283942,39.96
283958,39.64
283974,39.64
283990,39.64
284005,40.93
284021,40.28
284037,40.61
284053,39.96
284069,40.28
284084,40.61
284100,21.27
284116,19.98
284132,19.98
284148,40.28
284164,40.93
284179,36.09
284195,23.85
284211,19.98
284227,37.06
284243,40.61
284258,40.61
284274,41.25
284290,41.25
284306,40.28
284322,40.61
284338,40.28
284353,40.61
284369,40.61
284385,40.61
284401,40.61
284417,40.93
284432,40.61
284448,40.61
284464,40.93
284480,40.61
284496,40.61
284512,40.93
284527,41.25
284543,40.61
284559,40.93
284575,40.93
284591,40.93
284607,41.25
284622,40.61
284638,40.61
284654,40.61
284670,40.28
284686,40.28
284701,40.28
284717,40.28
284733,40.28
284749,39.96
284765,40.28
284781,40.28
284796,40.28
284812,40.61
284828,40.28
284844,39.96
284860,39.96
284875,40.28
284891,40.28
284907,39.96
284923,39.96
284939,39.96
284955,39.96
284970,40.61
284986,39.96
285002,39.64
285018,39.96
285034,40.28
285050,40.28
285065,40.28
285081,40.61
285097,40.61
285113,40.28
285129,40.28
285144,40.61
285160,40.61
285176,40.61
285192,40.28
285208,40.28
285224,40.28
285239,40.28
285255,40.28
285271,40.28
285287,39.64
285303,39.64
285318,39.64
285334,39.96
285350,40.28
285366,40.28
285382,40.28
285398,40.61
285413,40.61
285429,40.93
285445,40.61
285461,40.28
285477,40.28
285493,40.28
285508,40.28
285524,40.28
285540,40.28
285556,40.28
285572,40.61
285587,40.61
285603,40.61
285619,41.25
285635,40.28
285651,39.96
285667,40.61
285682,40.61
285698,40.93
285714,40.61
285730,40.93
285746,40.61
285761,41.25
285777,41.25
285793,41.57
285809,40.93
285825,41.25
285841,41.25
285856,41.25
285872,40.93
285888,40.93
285904,40.93
285920,40.61
285935,40.93
285951,40.61
285967,40.61
285983,41.25
285999,40.61
286015,40.93
286030,40.28
286047,40.93
286062,40.61
286078,40.28
286094,40.28
286109,40.28
286125,40.28
286141,40.93
286157,40.28
286173,40.61
286189,40.61
286204,40.61
286220,40.28
286236,40.61
286252,40.28
286268,40.28
286283,40.61
286299,40.61
286315,39.64
286331,39.64
286347,39.96
286363,39.64
286378,39.96
286394,40.28
286410,40.93
286426,40.28
286442,39.96
286457,39.96
286473,40.61
286489,40.28
286505,40.61
286521,40.93
286537,40.28
286552,40.93
286568,40.93
286584,40.93
286600,40.28
286616,40.61
286631,40.61
286647,39.96
286663,40.61
286679,34.80
286695,40.28
286711,22.56
286726,37.06
286742,25.78
286758,39.96
286774,40.28
286790,39.96
286805,40.61
286821,40.61
286837,40.61
286853,40.93
286869,40.93
286885,40.61
286900,41.25
286916,41.25
286932,41.25
286948,41.25
286964,31.58
286979,41.25
286995,29.00
287011,25.46
287027,25.46
287043,22.56
287059,27.71
287074,28.36
287090,40.61
287106,40.93
287122,40.93
287138,40.93
287153,40.93
287169,41.25
287185,41.25
287201,40.93
287217,40.93
287233,41.25
287248,40.93
287264,41.25
287280,40.93
287296,40.28
287312,40.61
287327,40.61
287343,40.61
287359,40.61
287375,29.65
287391,28.68
287407,27.07
287422,27.39
287438,23.53
287454,19.66
287470,17.40
287486,16.44
287502,17.08
287517,40.61
287533,19.98
287549,18.05
287565,17.72
287581,18.05
287596,17.40
287612,17.08
287628,17.08
287644,17.08
287660,40.61
287676,40.28
287691,40.61
287707,40.93
287723,40.61
287739,40.28
287755,39.96
287770,40.28
287786,40.61
287802,40.61
287818,39.64
287834,40.61
287850,40.61
287865,40.61
287881,40.61
287897,40.61
287913,40.61
287929,40.28
287944,40.93
287960,40.93
287976,40.93
287992,40.61
288008,40.61
288024,40.61
288039,40.61
288055,40.93
288071,40.93
288087,40.28
288103,40.61
288118,34.80
288134,21.91
288150,39.96
288166,40.61
288182,40.93
288198,40.28
288213,40.28
288229,40.28
288245,40.61
288261,40.61
288277,40.93
288293,40.28
288308,40.28
288324,40.93
288340,40.61
288356,40.28
288372,40.61
288387,40.61
288403,40.61
288419,40.28
288435,39.96
288451,40.61
288467,40.61
288482,40.28
288498,40.28
288514,40.61
288530,40.28
288546,40.28
288561,41.25
288577,40.28
288593,39.96
288609,40.28
288625,40.93
288641,40.61
288656,40.28
288672,40.93
288688,40.61
288704,41.25
288720,40.93
288735,40.93
288751,40.93
288767,40.93
288783,40.61
288799,40.61
288815,40.93
288830,40.61
288846,40.61
288862,40.61
288878,40.61
288894,39.96
288909,40.61
288925,40.28
288941,40.93
288957,40.28
288973,40.61
288989,39.96
289004,40.28
289020,40.61
289036,40.61
289052,40.93
289068,40.28
289083,40.28
289099,39.64
289115,40.28
289131,39.96
289147,39.96
289163,39.96
289178,39.96
289194,39.64
289210,40.28
289226,40.28
289242,40.93
289258,40.93
289273,40.61
289289,41.25
289305,41.25
289321,41.57
289337,40.93
289352,41.25
289368,40.93
289384,41.25
289400,40.61
289416,40.28
289432,39.96
289447,40.61
289463,40.28
289479,40.28
289495,40.28
289511,41.25
289526,41.25
289542,41.25
289558,41.25
289574,40.93
289590,41.25
289606,40.61
289621,40.93
289637,41.25
289653,41.25
289669,40.93
289685,41.57
289700,41.25
289716,41.25
289732,41.57
289748,40.93
289764,40.93
289780,41.25
289795,40.61
289811,40.61
289827,40.28
289843,40.28
289859,40.28
289874,39.96
289890,39.96
289906,40.28
289922,39.96
289938,39.96
289954,39.64
289969,40.61
289985,39.96
290001,39.96
290017,39.32
290033,39.96
290048,39.96
290064,39.96
290080,40.61
290096,39.96
290112,40.28
290128,40.28
290143,40.28
290159,39.96
290175,39.96
290191,39.96
290207,40.28
290223,40.28
290238,39.64
290254,40.28
290270,39.64
290286,40.28
290302,40.28
290317,40.61
290333,40.61
290349,41.25
290365,40.93
290381,40.93
290397,39.96
290412,40.28
290428,40.93
290444,40.28
290460,40.28
290476,40.28
290491,40.61
290507,40.28
290523,40.28
290539,39.96
290555,40.61
290571,40.28
290586,40.28
290602,40.28
290618,40.93
290634,40.28
290650,39.96
290665,39.96
290681,40.61
290697,40.28
290713,39.96
290729,40.61
290745,40.61
290760,40.61
290776,40.93
290792,40.61
290808,36.09
290824,40.61
290839,39.96
290855,40.28
290871,40.28
290887,40.28
290903,39.64
290919,39.64
290934,40.28
290950,40.28
290966,40.28
290982,40.28
290998,39.96
291013,40.28
291029,39.96
291045,40.28
291061,12.89
291077,8.06
291093,6.77
291108,6.77
291124,6.12
291140,5.80
291156,6.45
291172,29.00
291187,9.99
291203,7.73
291219,7.09
291235,7.09
291251,7.09
291267,7.73
291282,6.45
291298,6.45
291314,18.05
291330,6.12
291346,6.12
291361,40.93
291377,40.61
291393,40.61
291409,40.93
291425,40.61
291441,41.25
291456,40.93
291472,41.57
291488,41.25
291504,41.25
291520,41.25
291535,40.93
291551,40.93
291567,40.93
291583,40.93
291599,39.96
291615,39.96
291630,40.61
291646,40.28
291662,33.84
291678,6.77
291694,6.45
291710,6.45
291725,6.77
291741,7.09
291757,7.09
291773,6.77
291789,6.77
291804,6.77
291820,41.25
291836,41.25
291852,41.25
291868,41.25
291884,41.57
291899,41.25
291915,41.57
291931,41.25
291947,40.93
291963,41.57
291978,41.25
291994,40.61
292010,41.57
292026,40.93
292042,41.25
292058,41.25
292073,41.25
292089,41.25
292105,41.25
292121,40.93
292137,40.93
292152,41.25
292168,41.25
292184,40.93
292200,41.25
292216,41.57
292232,41.25
292247,41.25
292263,41.25
292279,40.93
292295,40.93
292311,40.93
292326,40.61
292342,40.61
292358,40.93
292374,40.93
292390,40.28
292406,40.28
292421,40.28
292437,40.61
292453,40.28
292469,39.96
292485,40.28
292500,40.28
292516,40.28
292532,40.61
292548,39.96
292564,39.96
292580,39.96
292595,39.64
292611,39.96
292627,40.28
292643,39.96
292659,39.64
292674,39.96
292690,39.64
292706,40.28
292722,40.28
292738,40.28
292754,40.28
292769,40.61
292785,40.61
292801,40.28
292817,39.96
292833,40.61
292848,40.61
292864,40.28
292880,40.28
292896,39.96
292912,70.25
292928,39.96
292943,40.28
292959,40.28
292975,40.93
292991,28.68
293007,40.93
293023,41.57
293038,41.25
293054,55.43
293070,41.57
293086,74.44
293102,16.44
293117,8.06
293133,6.77
293149,10.31
293165,40.93
293181,40.61
293196,40.93
293212,40.61
293228,40.93
293244,40.61
293260,40.61
293276,40.28
293291,41.25
293307,40.93
293323,40.93
293339,40.61
293355,40.93
293370,40.93
293386,40.61
293402,40.61
293418,40.61
293434,40.28
293450,40.61
293465,40.28
293481,40.93
293497,40.61
293513,40.28
293529,40.28
293544,40.61
293560,40.93
293576,40.93
293592,40.61
293608,40.93
293624,40.93
293639,40.93
293655,40.61
293671,40.93
293687,40.61
293703,40.28
293719,40.28
293734,40.28
293750,40.93
293766,41.25
293782,40.93
293798,39.96
293813,40.28
293829,40.93
293845,40.93
293861,40.93
293877,40.61
293893,40.28
293908,40.61
293924,40.93
293940,40.61
293956,40.61
293972,40.61
293987,40.93
294003,40.61
294019,40.61
294035,40.28
294051,40.28
294067,39.96
294082,39.96
294098,39.96
294114,39.64
294130,39.96
294146,39.64
294161,39.96
294177,39.96
294193,40.28
294209,39.96
294225,40.28
294241,40.28
294256,39.96
294272,40.28
294288,39.96
294304,39.96
294320,39.96
294335,40.28
294351,40.28
294367,41.25
294383,40.61
294399,40.28
294415,40.61
294430,40.61
294446,40.93
294462,41.25
294478,40.93
294494,40.93
294509,40.61
294525,40.61
294541,40.93
294557,40.93
294573,41.57
294589,41.25
294604,41.25
294620,41.25
294636,41.57
294652,40.61
294668,41.25
294683,40.93
294699,40.61
294715,41.25
294731,40.93
294747,41.25
294763,40.61
294778,40.93
294794,40.61
294810,40.93
294826,39.96
294842,39.96
294857,40.28
294873,39.64
294889,39.96
294905,18.37
294921,15.79
294937,15.47
294952,39.64
294968,39.96
294984,39.96
295000,20.95
295016,39.96
295031,39.96
295047,40.93
295063,41.25
295079,41.25
295095,41.57
295111,35.77
295126,28.68
295142,24.81
295158,40.28
295174,40.28
295190,39.96
295205,23.20
295221,19.98
295237,40.28
295253,40.28
295269,39.96
295285,39.64
295300,39.96
295316,39.96
295332,40.28
295348,40.93
295364,40.61
295379,40.93
295395,41.25
295411,41.25
295427,41.25
295443,40.93
295459,41.25
295474,40.61
295490,40.28
295506,40.61
295522,40.93
295538,40.28
295554,40.28
295569,39.96
295585,40.61
295601,40.61
295617,40.61
295633,40.28
295648,40.93
295664,40.93
295680,40.28
295696,40.28
295712,40.28
295728,39.64
295743,39.64
295759,39.64
295775,39.64
295791,39.64
295807,39.64
295822,39.96
295838,40.28
295854,39.96
295870,40.28
295886,40.28
295902,40.28
295917,40.61
295933,40.28
295949,27.71
295965,20.95
295981,38.99
295996,39.64
296012,38.99
296028,39.64
296044,39.96
296060,40.28
296076,24.17
296091,23.53
296107,39.32
296123,33.84
296139,21.59
296155,40.28
296170,40.61
296186,40.28
296202,39.96
296218,39.96
296234,40.28
296250,39.96
296265,40.93
296281,41.25
296297,40.93
296313,40.28
296329,40.28
296344,39.96
296360,39.64
296376,39.64
296392,39.64
296408,39.96
296424,39.64
296439,39.96
296455,39.96
296471,40.61
296487,40.28
296503,40.28
296519,40.61
296534,40.93
296550,40.61
296566,40.61
296582,40.61
296598,40.93
296613,40.61
296629,40.93
296645,40.93
296661,40.61
296677,40.28
296693,40.93
296708,40.61
296724,40.93
296740,40.93
296756,40.28
296772,40.61
296787,40.61
296803,40.93
296819,40.28
296835,40.28
296851,40.61
296867,40.93
296882,40.61
296898,40.28
296914,40.61
296930,40.93
296946,40.61
296961,40.61
296977,40.28
296993,40.61
297009,40.61
297025,40.61
297041,40.61
297056,40.61
297072,40.93
297088,40.93
297104,40.93
297120,40.28
297135,41.25
297151,40.61
297167,41.25
297183,40.93
297199,41.25
297215,40.61
297230,40.28
297246,40.61
297262,40.93
297278,40.61
297294,40.61
297309,40.61
297325,40.61
297341,40.93
297357,40.61
297373,40.61
297389,40.61
297404,40.61
297420,40.61
297436,40.61
297452,40.93
297468,40.28
297483,40.28
297499,39.96
297515,40.28
297531,39.96
297547,40.28
297563,40.28
297578,40.93
297594,40.28
729576,41.25
729589,41.57
729599,41.25
729609,40.93
729619,41.25
729629,40.93
729639,40.93
729649,41.25
729659,41.89
729669,40.93
729679,41.57
729689,41.25
729699,41.25
731075,40.93
731088,41.25
731098,41.57
731108,39.64
731119,40.28
731133,39.96
731144,40.61
731154,40.93
731164,40.28
731175,41.25
731186,40.61
731196,40.93
731206,40.93
731216,41.57
731226,41.57
731236,41.25
731246,41.25
731256,40.93
731266,40.93
731276,40.93
731286,41.25
731296,41.57
731306,40.93
731316,41.89
731326,41.25
731336,41.57
731346,41.25
731356,40.93
731366,41.25
731376,41.25
731386,40.93
731396,41.25
731406,40.93
731416,40.61
731426,41.25
731436,40.93
731446,40.93
731456,40.61
731466,40.61
731476,40.93
731486,40.28
731496,40.28
731506,40.28
731516,41.25
731526,40.93
731536,40.28
731546,39.96
731556,40.28
731566,40.28
731576,39.96
731586,40.28
731596,40.93
731606,41.57
731616,41.57
731626,40.93
731639,41.25
731654,40.61
731670,40.93
731686,40.93
731702,40.93
731718,40.93
731733,40.93
731749,40.28
731765,40.61
731781,40.61
731797,40.93
731813,40.61
731828,40.93
731844,41.57
731860,41.25
731876,41.25
731892,41.25
731907,41.25
731923,40.61
731939,41.57
731955,41.89
731971,40.61
731987,40.61
732002,40.93
732018,40.93
732034,40.93
732050,41.57
732066,41.25
732081,41.57
732097,41.25
732113,41.25
732129,41.57
732145,25.78
732161,41.57
732176,41.57
732192,41.57
732208,40.93
732224,40.93
732240,40.93
732255,41.57
732271,40.93
732287,41.25
732303,40.93
732319,40.93
732335,40.61
732350,40.93
732366,41.25
732382,40.61
732398,39.64
732414,39.96
732429,39.64
732445,40.28
732461,40.61
732477,40.93
732493,40.93
732509,40.93
732524,41.25
732540,41.25
732556,41.25
732572,41.25
732588,40.28
732603,40.28
732619,40.28
732635,40.28
732651,39.96
732667,39.96
732683,39.96
732698,39.64
732714,39.96
732730,39.96
732746,39.64
732762,39.96
732777,40.61
732793,40.61
732809,39.96
732825,39.64
732841,40.28
732857,39.96
732872,40.28
732888,39.64
732904,40.28
732920,40.28
732936,39.96
732952,39.96
732967,39.96
732983,40.61
732999,40.61
733015,39.96
733031,40.28
733046,39.64
733062,40.28
733078,40.61
733094,40.28
733110,40.61
733126,40.61
733141,40.61
733157,40.61
733173,40.93
733189,41.25
733205,41.57
733220,41.25
733236,40.93
733252,41.25
733268,40.93
733284,41.25
733300,40.93
733315,40.93
733331,41.57
733347,40.93
733363,41.57
733379,41.25
733394,41.57
733410,41.25
733426,41.25
733442,41.25
733458,40.93
733474,40.93
733489,40.93
733505,40.93
733521,41.57
733537,41.25
733553,40.93
733568,40.93
733584,40.93
733600,40.93
733616,41.57
733632,27.39
733648,40.28
733663,22.24
733679,40.61
733695,40.93
733711,39.32
733727,21.27
733743,41.57
733758,25.78
733774,20.95
733790,21.91
733806,41.25
733822,41.25
733837,41.25
733853,41.25
733869,40.93
733885,40.93
733901,41.57
733917,41.25
733932,40.93
733948,40.61
733964,40.93
733980,40.61
733996,40.28
734011,40.93
734027,40.28
734043,39.96
734059,40.93
734152,41.25
734165,40.93
734176,40.93
734187,40.61
734198,40.93
734208,40.61
734266,41.25
734277,41.57
734287,40.61
734297,41.57
734307,41.57
734317,41.89
734327,40.93
734337,41.25
734347,41.25
734357,41.25
734367,41.25
734377,41.57
734387,40.93
734397,40.93
734407,41.25
734417,40.93
734427,41.57
734439,40.61
734454,40.61
734470,41.25
734486,40.61
734502,40.61
734518,40.61
734533,41.25
734928,40.28
734938,40.93
734948,40.93
734959,41.25
734969,40.61
734980,41.25
734990,41.57
735000,41.57
735010,41.89
735020,41.25
735030,41.57
735040,41.25
735050,40.93
735060,41.57
735070,41.57
735080,41.25
735090,41.25
735100,40.93
735110,40.93
735120,40.93
735130,41.57
735140,40.93
735150,41.57
735160,41.25
735170,41.25
735181,40.93
735191,40.93
735201,40.93
735211,41.57
735221,40.61
735231,41.25
735241,40.93
735251,41.25
735261,40.93
735271,40.61
735281,40.61
735291,40.93
735301,40.61
735311,40.93
735321,41.57
735331,40.28
735341,39.96
735351,40.61
735361,40.61
735371,40.93
735381,41.25
735391,41.25
735401,40.93
735411,41.57
735421,40.93
735431,41.25
735441,41.25
735451,41.57
735461,40.93
735471,41.25
735483,41.25
735498,41.57
735514,41.25
735530,40.93
735546,40.93
735562,41.57
735577,41.25
735593,40.93
735609,40.93
735625,40.61
735641,40.61
735657,40.61
735672,41.25
735688,40.61
735704,40.93
735720,41.25
735736,41.25
735752,41.57
735767,40.93
735783,32.87
735799,41.89
735815,40.93
735831,40.93
735846,41.57
735862,41.89
735878,41.57
735894,41.25
735910,42.54
735926,41.25
735941,41.57
735957,41.25
735973,40.93
735989,40.61
736005,41.25
736020,40.93
736036,40.93
736052,40.93
736068,40.61
736084,41.57
736100,40.93
736115,41.57
736131,41.25
736147,41.25
736163,41.57
736179,40.93
736194,40.93
736210,41.25
736226,41.25
736242,40.93
736258,41.57
736274,40.93
736289,40.93
736305,41.25
736321,41.89
736337,40.93
736353,41.25
736368,41.57
736384,29.97
736400,41.25
736416,34.16
736432,24.81
736448,41.25
736463,26.43
736479,29.33
736495,27.07
736511,41.25
736527,40.93
736543,41.25
736558,41.57
736574,42.54
736590,29.00
736606,40.61
736622,40.61
736637,40.93
736653,40.61
736669,40.28
736685,40.28
736701,40.93
736717,41.25
736732,41.25
736748,41.57
736764,41.25
736780,40.93
736796,40.61
736811,41.25
736827,40.61
736843,41.25
736859,40.93
736875,40.93
736891,40.61
736906,40.93
736922,40.61
736938,40.93
736954,40.28
736970,40.61
736985,41.25
737001,40.61
737017,39.96
737033,39.96
737049,40.61
737065,40.93
737080,41.25
737096,40.93
737112,29.33
737128,40.93
737144,41.25
737159,41.57
737175,41.25
737191,41.25
737207,40.93
737223,41.25
737239,40.93
737254,40.61
737270,41.25
737286,41.25
737302,40.93
737318,41.25
737333,41.57
737349,40.61
737365,41.25
737381,40.61
737397,40.61
737413,41.25
737428,40.61
737444,40.61
737460,41.25
737571,41.25
737581,41.25
737591,40.93
737601,40.61
737611,40.93
737621,41.25
737631,41.57
737641,41.57
737651,41.57
737661,41.25
737671,41.25
737681,41.25
737691,40.93
737701,41.89
737763,41.57
737774,40.93
737784,41.25
737794,41.25
737804,40.93
737814,41.89
737824,41.89
737834,41.57
737844,40.28
737854,40.61
737864,24.17
737874,39.64
737887,41.57
737903,41.25
737919,40.93
737935,41.25
737950,41.57
737966,34.16
737983,41.57
737998,27.07
738065,40.93
738075,41.25
738085,41.25
738096,41.25
738106,40.61
738117,40.61
738128,40.28
738139,40.93
738149,40.93
738159,37.06
738172,40.61
738188,33.84
738204,40.61
738219,40.93
738235,41.25
738251,40.28
738267,39.96
738283,40.28
738298,41.25
738314,40.28
738330,40.61
738346,40.28
738362,40.61
738378,40.28
738393,40.93
738409,40.28
738425,40.61
738441,40.61
738457,40.28
738472,40.93
738488,40.61
738504,40.93
738520,40.61
738536,40.28
738552,40.93
738567,40.28
738583,40.93
738599,40.93
738615,40.93
738631,40.93
738647,41.57
738662,41.25
738678,40.61
738694,40.61
738710,40.61
738726,40.61
738741,40.93
738757,29.33
738773,39.96
738789,40.28
738805,40.61
738821,40.28
738836,40.61
738852,40.61
738868,40.93
738884,25.46
738900,41.25
738915,41.57
738931,41.25
738947,40.93
738963,40.93
738979,40.93
738995,40.61
739010,40.61
739026,40.93
739042,40.93
739058,40.93
739074,40.93
739090,40.28
739105,40.93
739121,40.93
739137,40.61
739153,40.61
739169,40.61
739184,41.25
739200,41.25
739216,41.25
739232,41.89
739248,40.93
739264,40.61
739279,41.25
739295,41.25
739311,41.57
739327,40.93
739343,41.25
739358,30.29
739374,41.25
739390,39.96
739406,41.25
739422,41.25
739438,40.93
739453,41.25
739469,40.61
739485,40.93
739501,40.93
739517,41.25
739532,41.25
739548,40.61
739564,41.57
739580,29.33
739596,22.56
739612,41.57
739627,41.25
739643,41.57
739659,41.57
739675,41.57
739691,40.93
739706,40.93
739722,41.25
739738,41.57
739754,40.93
739770,41.57
739786,40.93
739801,40.93
739817,40.93
739833,41.57
739849,40.28
739865,40.28
739881,41.57
739896,39.96
739912,39.96
739928,40.61
739944,39.96
739960,40.93
739975,40.61
739991,40.61
740007,40.61
740023,40.93
740039,41.25
740055,40.93
740070,41.57
740086,41.89
740102,41.25
740118,40.93
740134,41.25
740149,41.25
740165,41.25
740181,40.93
740197,41.25
740213,40.93
740229,40.61
740244,40.93
740260,40.61
740276,40.93
740292,41.89
740308,39.96
740323,40.28
740339,40.61
740355,40.93
740371,40.93
740387,40.28
740403,40.61
740418,40.61
740434,41.25
740450,41.25
740466,40.93
740482,40.93
740497,41.25
740513,40.28
740529,40.28
740545,40.93
740561,40.61
740577,40.61
740592,40.93
740608,40.28
740666,41.25
740676,40.93
740686,40.93
740696,41.57
740706,40.61
740716,40.61
740726,40.28
740736,40.61
740751,40.93
740766,41.57
740782,41.25
740864,41.57
740874,41.25
740884,28.68
740894,29.00
740904,40.93
740914,41.25
740924,25.46
741258,40.93
741270,41.25
741280,40.61
741290,40.61
741300,40.28
741310,40.61
741320,40.61
741330,40.28
741340,39.96
741350,40.28
741360,39.64
741370,40.61
741380,40.28
741390,40.93
741400,41.25
741410,40.93
741420,40.93
741430,40.61
741441,40.93
741451,41.25
741461,40.93
741471,40.93
741481,40.61
741491,40.93
741501,41.57
741511,41.57
741521,40.93
741531,40.28
741541,40.61
741551,40.61
741561,41.25
741571,41.89
741581,41.25
741591,41.25
741601,41.25
741611,41.57
741621,41.25
741631,41.25
741641,41.57
741651,41.57
741661,41.89
741671,41.89
741681,41.57
741691,41.57
741701,41.89
741711,41.89
741721,40.93
741731,41.25
741741,41.57
741751,41.25
741761,40.61
741771,41.25
741781,41.25
741791,40.93
741801,40.61
741811,41.25
741826,41.57
741842,40.93
741858,40.61
741874,40.93
741890,40.93
741905,41.57
741921,40.93
741937,40.61
741953,40.28
741969,39.64
741985,40.61
742000,41.25
742016,40.61
742032,40.61
742048,39.96
742064,40.61
742079,41.25
742095,40.93
742111,40.61
742127,40.28
742143,40.93
742159,40.61
742174,41.25
742190,40.93
742206,41.25
742222,40.93
742238,40.61
742254,41.25
742269,40.61
742285,41.57
742301,41.25
742317,40.93
742333,27.71
742348,40.28
742364,40.28
742380,40.93
742396,40.28
742412,40.28
742427,39.96
742443,40.61
742459,40.28
742475,39.96
742491,19.98
742507,21.27
742522,40.28
742538,40.61
742554,41.25
742570,40.61
742586,40.61
742602,40.61
742617,40.28
742633,40.61
742649,40.28
742665,39.96
742681,40.28
742696,40.61
742712,41.57
742728,40.28
742744,39.96
742760,40.61
742776,40.61
742791,40.61
742807,40.61
742823,40.93
742839,40.93
742855,40.28
742870,40.61
742886,40.28
742902,41.57
742918,40.93
742934,41.25
742950,40.93
742965,29.00
742981,41.57
742997,41.57
743013,41.89
743029,41.25
743044,40.93
743060,40.93
743076,41.57
743092,26.43
743108,35.77
743124,29.33
743139,40.28
743155,40.93
743171,40.28
743187,40.61
743203,40.93
743218,40.61
743234,40.61
743250,41.57
743266,40.93
743282,40.93
743298,40.61
743313,40.93
743329,40.93
743345,41.25
743361,41.25
743377,40.93
743392,41.25
743408,41.25
743424,40.93
743440,40.93
743456,41.25
743472,41.57
743487,41.57
743503,40.93
743519,41.25
743535,40.61
743551,40.93
743567,40.61
743582,41.25
743598,41.25
743614,41.89
743630,41.25
743646,41.57
743661,41.25
743677,41.89
743693,23.85
743709,24.17
743725,22.24
743741,41.57
743756,23.53
743772,41.57
743788,41.25
743804,41.57
743820,41.25
743835,41.25
743851,41.57
743867,41.57
743883,41.25
743899,41.57
743973,41.57
743983,41.57
743993,41.57
744003,41.25
744013,41.89
744023,41.57
744033,41.25
744043,41.57
744053,41.57
744063,41.57
744073,41.89
744089,40.28
744104,40.93
744120,40.93
744136,40.93
744152,41.25
744168,40.93
744184,40.93
744199,40.28
744215,40.28
744231,40.28
744247,39.96
744263,39.96
744278,40.28
744294,40.61
744310,41.57
744326,40.61
744342,40.28
744358,40.93
744373,40.93
744389,41.25
744405,40.93
744421,41.57
744437,41.25
744452,41.25
744531,40.28
744542,40.28
744552,39.64
744562,39.64
744572,39.96
744582,40.28
744592,39.96
744602,39.96
744612,39.64
744622,39.96
745458,40.61
745470,40.28
745480,40.28
745490,40.61
745500,41.57
745510,41.25
745520,40.28
745530,40.93
745540,40.28
745550,40.93
745560,40.61
745570,41.57
745581,40.93
745591,41.25
745601,41.57
745612,41.89
745622,41.57
745632,41.25
745642,41.57
745652,41.57
745662,41.57
745672,41.25
745682,41.57
745692,41.57
745702,40.93
745712,41.57
745722,41.57
745732,41.57
745742,41.25
745752,41.25
745762,41.89
745772,40.93
745782,40.93
745792,41.25
745802,41.25
745812,41.25
745822,41.57
745832,41.25
745842,41.57
745852,41.25
745862,40.93
745872,41.57
745882,41.57
745892,41.89
745902,41.89
745912,41.25
745922,41.25
745932,40.93
745942,41.25
745952,41.25
745962,41.57
745972,41.25
745982,40.93
745992,41.25
746003,41.25
746019,40.93
746034,41.25
746050,41.57
746066,41.25
746082,40.93
746098,40.28
746113,40.28
746129,40.61
746145,40.93
746161,40.93
746177,40.93
746193,40.61
746208,40.28
746224,40.61
746240,40.93
746256,40.28
746272,40.61
746288,40.28
746303,40.28
746319,39.96
746335,39.96
746351,40.28
746367,39.96
746382,40.28
746398,39.96
746414,40.28
746430,39.96
746446,40.28
746462,40.28
746477,40.93
746493,41.25
746509,40.28
746525,40.93
746541,40.61
746556,41.25
746572,40.93
746588,40.61
746604,40.61
746620,40.28
746636,40.28
746651,40.61
746667,40.28
746683,41.25
746699,40.28
746715,39.96
746730,39.96
746746,40.28
746762,40.28
746778,40.28
746794,39.96
746810,40.28
746825,39.96
746841,40.61
746857,32.87
746873,40.28
746889,40.61
746904,41.57
746920,40.93
746936,40.61
746952,40.93
746968,40.28
746984,40.61
746999,40.28
747015,39.96
747031,39.96
747047,40.28
747063,40.28
747079,40.93
747094,39.96
747110,40.28
747126,40.61
747142,40.61
747158,40.28
747173,40.28
747189,39.64
747205,40.93
747221,41.25
747237,41.25
747253,41.25
747268,41.57
747284,41.25
747300,40.93
747316,41.25
747332,40.93
747347,41.57
747363,41.25
747379,40.93
747395,41.25
747411,41.57
747427,40.61
747442,40.93
747458,41.25
747474,41.89
747490,40.28
747506,40.61
747521,41.25
747537,40.61
747553,41.25
747569,40.93
747585,40.61
747601,40.93
747616,41.25
747632,40.93
747648,40.61
747664,40.28
747680,40.93
747695,40.61
747711,40.93
747727,40.93
747743,40.93
747759,40.61
747775,41.57
747790,41.25
747806,41.25
747822,40.93
747838,40.28
747854,40.93
747869,40.93
747885,39.96
747901,40.28
747917,40.28
747933,40.28
747949,40.93
747964,41.25
747980,41.57
747996,41.57
748012,40.93
748119,41.89
748130,41.89
748141,41.57
748151,41.57
748162,41.25
748173,41.57
748183,41.25
748193,40.93
748203,41.57
748213,40.61
748223,40.93
748233,40.93
748243,40.61
748253,41.57
748263,41.57
748273,40.61
748283,39.96
748297,39.96
748312,40.61
748328,39.96
748344,40.93
748360,40.93
748376,41.57
748392,41.25
748407,40.93
748589,39.96
748599,39.96
748609,39.96
748619,39.96
748629,39.64
748639,40.28
748649,40.28
748659,40.93
748669,39.64
749222,40.61
749234,40.93
749245,39.96
749255,40.28
749267,40.61
749278,40.61
749288,39.96
749298,40.61
749308,40.61
749318,41.25
749328,41.25
749338,41.25
749348,40.61
749358,41.25
749368,40.61
749378,41.57
749388,40.93
749398,40.61
749408,40.93
749418,40.61
749428,41.57
749438,41.25
749448,31.26
749458,40.28
749468,40.61
749478,40.28
749488,40.61
749498,40.61
749508,40.61
749518,40.61
749528,40.61
749538,40.61
749548,40.61
749558,40.28
749568,40.61
749578,40.61
749588,40.61
749598,40.61
749608,38.99
749618,36.09
749628,22.56
749638,20.95
749648,20.95
749658,20.63
749668,20.63
749678,40.61
749688,39.64
749698,40.93
749708,40.93
749718,29.00
749728,21.91
749738,20.95
749748,19.98
749758,19.66
749768,40.93
749784,40.61
749799,40.61
749815,40.93
749831,40.61
749847,39.96
749863,40.61
749878,40.61
749894,40.93
749910,40.93
749926,40.93
749942,40.93
749958,41.57
749973,41.25
749989,41.25
750005,41.25
750021,41.25
750037,40.61
750052,40.61
750068,40.28
750084,40.61
750100,40.61
750116,41.57
750132,41.25
750147,41.25
750163,41.25
750179,41.57
750195,40.93
750211,40.61
750227,41.89
750242,40.93
750258,41.25
750274,41.57
750290,41.25
750306,41.25
750321,41.25
750337,41.57
750353,41.57
750369,40.28
750385,40.93
750401,40.61
750416,40.61
750432,40.93
750448,40.93
750464,40.61
750480,40.61
750495,40.93
750511,40.28
750527,40.28
750543,40.28
750559,39.96
750575,39.96
750590,40.61
750606,40.61
750622,39.96
750638,39.96
750654,39.96
750669,39.96
750685,40.28
750701,40.93
750717,40.61
750733,40.28
750749,40.28
750764,40.61
750780,40.28
750796,39.96
750812,39.96
750828,39.96
750843,40.28
750859,41.25
750875,41.25
750891,40.93
750907,41.25
750923,41.25
750938,41.57
750954,41.25
750970,41.57
750986,41.25
751002,41.89
751017,40.61
751033,41.57
751049,40.93
751065,40.93
751081,41.25
751097,40.61
751112,41.25
751128,41.57
751144,41.25
751160,41.25
751176,41.57
751192,40.93
751207,40.61
751223,41.25
751239,41.25
751255,41.25
751271,40.93
751286,41.25
751302,41.25
751318,41.57
751334,41.25
751350,40.93
751366,41.57
751381,41.57
751397,40.28
751413,40.61
751429,40.61
751445,40.61
751460,40.93
751476,40.93
751492,40.61
751508,40.61
751524,40.61
751540,40.93
751555,40.61
751571,40.93
751587,40.61
751603,40.28
751619,40.28
751635,40.28
751650,41.25
751666,41.25
751705,40.28
751715,40.61
751725,40.61
751735,40.61
751745,41.25
751761,41.57
751777,40.28
751793,40.28
751809,40.61
751883,40.93
751893,40.93
751903,40.93
751913,40.28
751923,39.96
752021,40.28
752032,40.61
752042,41.25
752052,40.93
752062,40.93
752072,41.25
752082,41.57
752092,40.61
752103,39.64
752115,40.61
752126,40.61
752137,41.25
752147,41.25
752157,39.96
752167,39.64
752177,39.96
752187,39.96
752197,39.96
752207,39.64
752217,39.96
752227,39.64
752237,39.64
752251,40.28
752267,40.28
752283,40.28
752299,40.93
752315,41.25
752331,40.61
752346,40.93
752362,41.25
752378,41.25
752394,40.93
752410,40.93
752425,41.25
752441,40.93
752457,25.78
752473,39.32
752489,40.28
752505,39.96
752520,40.93
752536,40.93
752552,39.96
752568,39.64
752584,39.64
752600,39.96
752615,39.96
752631,39.96
752647,39.96
752663,39.64
752679,40.28
752694,40.28
752710,41.25
752726,40.93
752742,40.61
752758,41.25
752774,40.61
752789,40.28
752805,40.28
752821,40.28
752837,40.28
752853,40.61
752868,40.61
752884,40.28
752900,40.93
752916,40.93
752932,39.96
752948,39.96
752963,40.28
752979,40.28
752995,40.28
753011,40.28
753027,41.25
753042,41.25
753058,40.61
753074,41.25
753090,40.93
753106,40.93
753122,23.20
753137,40.93
753153,40.93
753169,40.93
753185,41.25
753201,41.25
753217,41.25
753232,40.93
753248,40.61
753264,28.04
753280,41.25
753296,30.29
753311,40.28
753327,38.99
753343,40.28
753359,40.61
753375,40.61
753391,40.61
753407,40.93
753422,40.61
753438,40.61
753454,40.61
753470,40.28
753485,40.61
753501,41.25
753517,40.93
753533,40.61
753549,40.28
753565,40.28
753580,40.28
753596,39.96
753612,39.96
753628,39.64
753644,39.64
753659,39.96
753675,39.96
753691,39.32
753707,38.99
753723,39.32
753739,40.61
753754,40.93
753770,40.93
753786,40.61
753802,40.93
753818,41.57
753833,40.93
753849,40.93
753865,41.57
753881,41.25
753897,41.57
753913,40.93
753928,40.93
753944,41.25
753960,41.25
753976,40.28
753992,40.61
754007,39.96
754023,39.64
754039,40.28
754055,40.28
754071,39.96
754087,39.64
754102,39.96
754118,40.61
754134,40.93
754150,29.00
754166,40.93
754182,40.61
754197,40.61
754213,40.61
754229,39.96
754245,40.28
754261,39.96
754276,39.96
754292,39.96
754308,39.96
754324,40.28
754340,40.28
754356,40.28
754371,39.96
754387,39.64
754403,39.64
754419,40.28
754435,40.28
754450,41.25
754466,39.64
754482,40.61
754498,40.61
754514,40.61
754530,40.61
754545,40.93
754837,24.17
754848,40.28
754858,40.28
754868,40.28
754878,40.93
754888,40.28
754898,40.61
754908,40.93
754918,40.28
754928,40.28
754938,40.61
754949,40.61
754959,40.93
754969,40.61
754979,41.57
755043,40.61
755054,41.25
755064,41.25
755074,41.25
755084,40.61
755094,41.25
755104,40.61
755114,40.61
755124,40.61
755134,40.61
755145,40.61
755156,40.93
755167,41.25
755177,40.93
755187,40.61
755197,40.93
755207,40.93
755217,40.28
755227,39.96
755237,39.96
755247,40.61
755257,40.61
755267,40.28
755277,40.61
755287,40.93
755297,40.93
755307,40.61
755317,40.93
755327,40.61
755337,41.57
755347,41.25
755357,41.25
755367,40.93
755377,41.25
755387,41.57
755397,40.93
755407,40.61
755417,40.28
755427,39.96
755437,40.28
755447,40.93
755457,40.28
755467,40.28
755479,40.61
755495,40.61
755510,41.25
755526,40.93
755542,40.93
755558,40.28
755574,40.93
755590,41.57
755605,40.28
755621,40.61
755637,40.61
755653,40.28
755669,40.61
755684,40.93
755700,41.57
755716,40.93
755732,41.57
755748,41.25
755764,40.61
755779,40.93
755795,40.93
755811,40.61
755827,40.61
755843,41.25
755858,40.61
755874,40.93
755890,40.61
755906,41.25
755922,40.93
755938,40.61
755953,40.61
755969,41.57
755985,41.25
756001,40.28
756017,40.93
756032,41.57
756048,40.93
756064,41.25
756080,41.57
756096,41.25
756112,41.57
756127,36.74
756143,23.53
756159,21.59
756175,21.59
756191,24.17
756206,40.61
756222,40.93
756238,40.93
756254,41.25
756270,33.19
756286,21.59
756301,40.93
756317,40.93
756333,40.28
756349,39.96
756365,41.57
756380,40.28
756396,39.96
756412,40.28
756428,39.96
756444,40.28
756460,40.28
756677,40.28
756687,40.93
756697,40.61
756707,40.61
756717,33.19
756727,40.93
756737,41.25
756747,41.57
756757,40.61
756767,39.96
756777,40.28
756787,39.96
756797,40.61
756807,40.61
756819,40.28
756829,40.93
756839,40.93
756849,40.93
756859,37.71
756869,40.61
756879,40.93
756889,40.93
756899,41.25
756909,40.93
756919,41.57
756929,40.61
756939,40.93
756949,40.28
756959,40.61
756969,40.28
756979,40.28
756989,39.96
756999,41.25
757009,40.93
757019,41.25
757029,41.25
757045,40.93
757061,40.61
757077,40.28
757092,40.61
757108,40.28
757124,41.25
757140,39.64
757156,39.32
757171,39.96
757187,39.32
757203,40.61
757219,40.28
757235,39.96
757251,40.28
757266,39.96
757282,40.93
757298,40.61
757314,40.93
757330,40.61
757345,39.96
757361,40.28
757377,41.25
757393,40.93
757409,40.28
757425,40.93
757440,40.61
757456,40.93
757472,31.58
757488,40.61
757504,33.52
757519,41.57
757535,40.28
757551,40.93
757567,41.25
757583,40.93
757599,40.61
757614,41.57
757630,40.93
757646,41.57
757662,40.93
757678,41.25
757694,40.93
757709,40.61
757725,40.61
757741,40.61
757757,40.93
757773,40.28
757788,40.61
757804,40.28
757820,40.28
757836,40.61
757852,40.93
757868,40.61
757883,41.57
757899,40.61
757915,40.28
757931,40.28
757947,40.28
757962,40.28
757978,39.96
757994,40.28
758010,40.28
758026,40.93
758042,41.25
758057,40.61
758073,40.93
758089,40.28
758105,39.64
758121,27.07
758136,29.33
758152,40.93
758168,40.93
758184,40.61
758200,40.93
758216,41.25
758231,40.61
758247,41.25
758263,41.57
758279,30.94
758295,23.20
758310,23.20
758326,40.28
758342,40.93
758358,40.93
758374,40.61
758390,40.93
758405,40.61
758421,40.61
758437,40.93
758453,40.93
758469,41.57
758484,40.61
758500,40.61
758516,40.61
758532,40.61
758548,40.93
758564,40.93
758579,40.93
758595,40.61
758611,40.61
758627,40.28
758643,41.57
758658,40.93
758674,39.96
758690,40.61
758706,40.61
758722,40.28
758738,40.61
758753,40.61
758769,40.28
758785,40.61
758801,40.61
758817,40.61
758833,41.25
758848,41.25
758864,41.25
758880,40.93
758896,40.61
758912,41.25
758927,41.57
758943,41.57
758959,41.25
758975,41.25
758991,40.93
759007,40.28
759022,29.00
759038,40.61
759054,40.28
759070,40.93
759086,40.61
759101,40.28
759117,40.61
759133,40.28
759149,40.61
759165,40.93
759181,41.25
759196,40.61
759212,40.93
759228,40.28
759244,40.61
759260,40.61
759275,40.93
759291,40.93
759307,40.61
759323,40.93
759339,40.28
759355,40.28
759370,40.61
759386,40.61
759402,41.57
759418,40.61
759434,40.28
759449,40.28
759465,40.28
759481,41.25
759497,40.61
759513,40.61
759529,40.28
759544,40.28
759560,28.68
759576,28.36
759592,27.07
759608,23.20
759623,20.95
759639,21.91
759655,41.25
759735,40.93
759745,40.61
759755,41.25
759765,40.93
759775,41.57
759785,41.57
759795,41.25
759805,40.28
759815,40.61
759825,40.61
759835,40.61
759845,40.28
759861,41.25
759877,40.93
759892,40.93
759908,41.25
759987,41.25
759998,40.61
760008,40.61
760018,40.93
760028,40.61
760038,40.61
760048,41.25
760058,40.93
760068,40.61
760078,40.93
760088,40.28
760098,40.61
760114,40.28
760130,40.61
760511,40.61
760524,39.96
760534,40.61
760544,41.25
760554,40.93
760564,39.96
760574,40.28
760584,39.96
760594,40.61
760604,41.25
760614,40.93
760624,40.93
760634,41.25
760644,40.28
760654,41.25
760664,40.28
760674,41.25
760684,41.25
760694,40.93
760704,41.25
760714,40.61
760724,40.61
760734,40.93
760744,40.61
760754,40.61
760764,40.93
760774,40.61
760784,41.25
760794,41.25
760804,40.93
760814,41.25
760824,40.61
760834,40.28
760844,40.28
760854,40.93
760864,40.28
760874,40.28
760884,40.28
760894,40.61
760904,40.28
760914,40.28
760924,40.93
760934,40.93
760944,40.28
760954,39.64
760964,40.28
760974,41.25
760984,40.61
760994,40.61
761004,40.28
761014,40.61
761024,40.28
761034,41.25
761044,40.61
761054,40.61
761064,41.25
761079,41.25
761095,41.25
761110,41.25
761126,41.25
761142,41.25
761158,41.25
761174,41.25
761190,41.57
761205,40.93
761221,39.64
761237,40.93
761253,40.61
761269,40.93
761284,40.93
761300,27.07
761316,24.49
761332,40.61
761348,40.61
761364,40.61
761379,40.61
761395,40.61
761411,40.93
761427,40.61
761443,40.93
761458,41.25
761474,41.57
761490,41.57
761506,40.93
761522,40.93
761538,41.25
761553,41.25
761569,40.61
761585,40.28
761601,39.96
761617,39.32
761632,39.64
761648,39.96
761664,40.61
761680,40.93
761696,39.96
761712,39.96
761727,39.96
761743,39.32
761759,40.93
761775,40.93
761791,41.25
761807,40.93
761822,40.93
761838,25.78
761854,36.09
761870,40.93
761886,40.93
761901,40.61
761917,40.61
761933,41.57
761949,40.93
761965,40.93
761981,40.61
761996,40.93
762012,41.25
762028,41.25
762044,41.25
762060,41.89
762075,41.57
762091,40.61
762107,40.28
762123,40.61
762139,40.61
762155,40.61
762170,41.57
762186,40.93
762202,41.25
762218,40.93
762234,40.93
762249,40.93
762265,40.93
762281,40.61
762297,40.93
762313,40.61
762329,40.61
762344,40.61
762360,40.61
762376,40.93
762392,40.93
762408,41.57
762423,40.93
762439,41.25
762455,41.25
762471,40.93
762487,40.61
762503,23.85
762518,23.85
762534,22.24
762550,23.85
762566,23.85
762582,27.07
762597,41.89
762613,41.57
762629,41.25
762645,40.61
762661,40.61
762677,41.25
762692,40.61
762708,40.93
762724,40.93
762740,24.49
762756,39.64
762772,38.03
762787,24.81
762803,40.93
762819,40.93
762835,40.61
762851,39.96
762866,39.96
762882,40.61
762898,41.25
762914,40.61
762930,40.28
762946,40.93
762961,40.93
762977,40.93
762993,40.61
763009,40.28
763025,40.28
763040,40.28
763056,40.61
763072,40.93
763088,40.28
763104,39.96
763120,40.93
763135,40.61
763151,40.61
763167,40.93
763236,40.61
763248,40.61
763258,40.61
763268,40.93
763278,40.61
763288,40.61
763298,40.93
763308,40.61
763318,38.03
763328,40.93
763341,41.25
763357,41.57
763373,41.57
763388,41.25
763404,40.93
763420,41.25
763436,40.61
763452,40.93
763468,41.25
763483,41.57
763499,40.93
763515,40.93
763531,40.93
763547,40.28
763679,40.93
763689,40.93
763699,40.61
763709,40.61
763719,40.61
763729,40.61
763739,40.28
763749,41.57
763759,40.61
763852,41.25
763863,40.28
763873,40.61
763883,40.28
763893,40.61
763903,40.28
763913,40.93
763923,40.93
763933,40.61
763945,40.61
763956,42.54
763966,41.25
763976,40.28
763986,40.61
763996,40.28
764006,40.93
764016,40.93
764026,40.61
764036,40.61
764046,40.28
764056,40.28
764066,40.28
764076,40.28
764086,40.28
764096,40.28
764106,40.28
764116,40.28
764132,40.28
764148,40.28
764164,40.28
764180,40.28
764195,40.28
764211,40.61
764227,40.61
764243,40.61
764259,40.61
764274,40.28
764290,40.28
764306,40.61
764322,41.57
764338,40.93
764354,40.61
764369,40.61
764385,40.61
764401,40.61
764417,40.28
764433,40.93
764448,40.93
764464,40.61
764480,40.61
764496,40.61
764512,40.61
764528,40.93
764543,40.61
764559,40.93
764575,40.61
764591,40.61
764607,40.93
764622,40.93
764638,40.61
764654,40.93
764670,40.93
764686,40.93
764702,41.57
764717,40.61
764733,27.07
764749,26.10
764765,21.91
764781,38.99
764796,22.24
764812,21.59
764828,40.93
764844,41.25
764860,40.93
764876,41.25
764891,40.93
764907,22.24
764923,40.93
764939,40.93
764955,40.93
764970,41.25
764986,40.61
765002,40.61
765018,40.61
765034,40.61
765050,40.93
765065,41.25
765081,41.57
765097,40.93
765113,40.28
765129,40.28
765144,40.28
765160,39.96
765176,40.28
765192,40.61
765208,40.28
765224,39.96
765239,40.93
765255,40.61
765271,40.93
765287,40.61
765303,40.93
765318,40.93
765334,40.93
765350,41.57
765366,41.25
765382,41.57
765398,40.61
765413,40.93
765429,40.93
765445,41.89
765461,40.28
765477,40.28
765493,40.28
765508,40.61
765524,40.61
765540,40.28
765556,40.28
765572,40.61
765587,40.93
765603,40.61
765619,40.61
765635,40.93
765651,40.28
765667,40.61
765682,40.93
765698,41.57
765714,40.61
765730,40.61
765746,40.93
765762,40.93
765777,40.61
765793,40.28
765809,41.57
765825,40.28
765841,40.28
765856,40.28
765872,40.61
765888,40.61
765904,40.28
765920,39.96
765936,39.96
765951,40.61
765967,40.28
765983,41.57
765999,40.93
766015,40.93
766030,41.57
766046,40.93
766062,40.61
766078,41.25
766094,41.25
766110,40.61
766125,40.93
766141,40.93
766157,40.93
766173,40.61
766189,41.57
766204,40.61
766220,40.28
766236,40.61
766252,40.93
766268,40.93
766284,40.28
766299,41.25
766315,40.93
766331,41.25
766347,40.61
766363,41.25
766379,40.61
766394,40.61
766410,40.61
766426,40.93
766442,40.93
766458,41.25
766473,41.25
766489,40.61
766505,40.61
766521,40.61
766558,41.25
766569,40.93
766579,40.28
766589,40.28
766600,39.96
766616,40.28
766632,40.61
766647,40.61
766663,41.25
766679,41.25
766695,40.93
766711,40.61
766727,40.28
766742,40.93
766758,41.25
766774,41.25
766790,41.25
766806,41.57
766822,41.57
766837,40.93
766873,41.25
766883,40.93
766893,41.25
766903,40.61
766916,41.25
766932,41.89
766996,40.61
767006,40.28
767016,40.28
767026,39.96
767036,40.28
767046,40.93
767056,40.93
767066,40.93
767076,40.28
767090,40.93
767107,40.28
767122,40.93
767138,41.25
767154,40.61
767170,40.61
767185,40.93
767201,40.93
767217,40.61
767233,40.93
767249,40.61
767264,40.61
767280,39.96
767296,40.28
767312,40.93
767328,39.64
767344,39.96
767359,40.28
767375,40.28
767391,39.96
767407,40.28
767423,40.61
767438,41.25
767454,41.25
767470,40.93
767486,41.57
767502,41.57
767518,40.93
767533,40.93
767549,40.93
767565,41.25
767581,41.25
767597,41.25
767613,40.93
767628,40.28
767644,40.61
767660,40.61
767676,41.57
767692,40.61
767707,40.93
767723,40.61
767739,39.96
767755,40.93
767771,40.61
767787,41.25
767802,40.93
767818,40.61
767834,40.61
767850,40.61
767866,40.61
767881,40.93
767897,40.93
767913,40.61
767929,40.28
767945,40.61
767961,40.28
767976,40.28
767992,40.61
768008,40.28
768024,40.61
768040,40.61
768055,41.25
768071,40.28
768087,39.96
768103,40.28
768119,40.93
768135,41.25
768150,41.57
768166,40.93
768182,40.93
768198,41.25
768214,41.57
768230,41.25
768245,41.25
768261,40.93
768277,40.93
768293,40.93
768309,41.25
768324,41.25
768340,40.93
768356,41.25
768372,40.61
768388,41.57
768404,40.28
768419,40.61
768435,41.57
768451,40.28
768467,40.28
768483,40.93
768498,41.25
768514,40.93
768530,41.25
768546,40.93
768562,40.93
768578,41.57
768593,41.25
768609,40.93
768625,40.61
768641,39.96
768657,39.96
768672,40.61
768688,40.28
768704,40.61
768720,39.96
768736,40.28
768752,39.64
768767,39.96
768783,39.64
768799,40.28
768815,40.28
768831,40.61
768847,40.93
768862,40.28
768878,41.25
768894,40.93
768910,40.93
768926,40.93
768941,41.57
768957,41.25
768973,41.25
768989,41.25
769005,40.28
769021,40.28
769036,40.28
769052,40.61
769068,40.61
769084,39.64
769100,40.28
769115,39.64
769131,39.96
769147,40.28
769163,40.28
769179,41.25
769195,40.28
769210,39.96
769226,40.28
769242,40.93
769258,40.28
769274,40.28
769290,40.93
769305,40.28
769321,40.93
769337,40.61
769353,40.28
769369,40.61
769384,40.61
769400,40.61
769416,40.28
769432,39.64
769448,39.96
769464,39.96
769479,39.96
769495,39.64
769511,40.28
769527,40.28
769543,40.28
769558,40.61
769574,40.28
769590,40.28
769606,40.61
769622,40.61
769638,40.61
769653,40.61
769669,40.61
769685,40.28
769701,40.28
769717,40.93
769732,40.28
769748,40.61
769764,39.96
769780,40.61
769796,39.96
769812,40.93
769827,40.61
769843,41.25
769859,41.25
769875,40.93
769891,40.93
769906,41.25
769922,40.93
769938,41.25
769954,40.61
769970,40.28
769986,40.61
770001,40.61
770017,40.93
770033,41.25
770049,40.61
770065,40.93
770080,41.25
770096,41.57
770141,40.93
770153,40.61
770164,41.25
770175,41.25
770185,40.61
770196,40.93
770207,41.25
