5957,12,136
5967,704,512,440
5977,422,512,769
5987,466,513,134
5997,506,512,156
6007,511,512,196
6017,511,513,559
6027,502,513,175
6037,509,511,209
6047,510,511,543
6057,627,513,372
6067,471,512,150
6078,504,513,159
6088,511,513,539
6098,472,1018,259
6108,540,240,237
6119,432,465,221
6129,482,506,220
6139,470,511,147
6149,506,513,214
6160,505,513,238
6170,511,512,237
6180,476,509,227
6190,659,511,346
6200,511,512,494
6210,443,1021,642
6221,503,409,200
6232,510,500,259
6242,492,510,228
6252,509,513,170
6262,495,513,178
6272,442,510,163
6282,501,511,584
6293,465,510,125
6303,481,511,168
6313,490,513,773
6323,510,512,176
6334,511,513,589
6344,498,511,492
6354,511,1019,182
6365,471,359,681
6375,506,477,140
6385,493,507,122
6395,490,512,113
6405,456,512,100
6415,471,512,728
6426,505,510,116
6437,485,510,109
6447,476,511,90
6457,507,511,169
6467,506,513,349
6477,529,513,350
6487,456,569,100
6497,477,57,689
6508,481,549,555
6520,508,481,231
6535,506,581,135
6551,504,521,114
6567,511,514,151
6582,510,513,86
6599,510,513,419
6614,511,512,226
6630,468,486,123
6646,436,589,120
6662,499,593,166
6678,507,522,149
6694,511,513,786
6709,447,512,167
6725,459,512,158
6741,464,511,155
6757,503,512,151
6773,511,512,172
6788,426,409,103
6804,414,740,268
6820,484,342,737
6836,508,491,246
6852,511,526,133
6868,508,493,257
6883,509,510,429
6899,511,510,212
6915,509,513,234
6931,505,512,202
6947,433,511,149
6961,496,510,94
6978,509,512,259
6994,509,511,124
7010,511,511,444
7027,511,1020,252
7042,510,684,165
7057,512,534,187
7073,511,516,267
7089,443,459,172
7103,465,7,176
7121,426,424,413
7136,500,501,232
7152,491,510,593
7168,467,510,282
7184,454,708,560
7200,406,463,419
7215,445,507,578
7231,409,511,785
7247,412,513,306
7263,499,513,463
7279,509,509,324
7295,403,511,205
7310,472,510,383
7326,505,512,667
7342,514,638,320
7358,667,273,569
7374,470,463,220
7390,411,506,140
7405,497,512,581
7421,508,580,211
7437,512,483,495
7453,508,508,175
7469,487,508,224
7484,513,512,204
7500,494,512,194
7516,508,511,164
7532,434,510,234
7548,480,512,144
7564,465,512,473
7579,606,511,162
7594,433,512,92
7612,402,1018,163
7627,497,377,173
7642,664,466,89
7658,377,505,451
7674,646,512,161
7690,395,535,377
7706,494,547,525
7722,469,320,749
7736,506,465,83
7753,511,506,367
7770,502,1019,134
7785,510,286,175
7801,426,454,713
7817,558,342,750
7832,375,580,340
7848,429,521,204
7864,490,585,147
7880,509,369,282
7896,502,661,263
7912,602,558,260
7927,441,518,412
7943,489,513,200
7959,506,116,384
7975,487,463,409
7991,504,506,357
8006,510,512,128
8022,512,512,130
8038,681,512,224
8054,437,513,589
8070,501,511,608
8087,507,1020,542
8101,644,285,687
8117,399,362,128
8133,473,494,186
8149,675,503,138
8165,426,511,323
8181,500,704,135
8196,471,409,211
8212,452,470,326
8228,558,507,288
8244,484,513,182
8260,390,511,146
8275,496,512,777
8291,729,510,723
8307,401,510,152
8323,483,510,176
8339,470,513,314
8355,753,804,711
8370,571,634,455
8385,379,281,64
8402,485,498,371
8418,564,580,272
8434,469,730,168
8449,431,479,137
8465,391,658,117
8481,475,531,123
8497,584,139,218
8537,404,465,187
8547,426,506,93
8557,448,546,673
8569,610,507,217
8579,541,511,347
8591,426,513,78
8633,490,604,262
8643,504,444,651
8653,508,504,273
8663,512,511,573
8673,416,629,118
8687,498,834,249
8749,482,461,157
8759,504,361,116
8769,416,372,119
8779,382,692,90
8789,590,578,188
8799,499,484,702
8809,510,254,128
8819,412,479,111
8829,396,508,122
8845,428,677,180
8861,451,498,571
8876,498,510,223
8892,510,980,120
8908,513,616,149
8924,418,463,507
8940,458,135,151
8955,624,464,326
8971,669,506,196
8987,436,560,113
9003,438,887,128
9019,435,560,198
9035,387,519,468
9050,677,514,241
9066,528,513,698
9082,427,192,187
9098,494,424,324
9114,509,501,318
9129,512,512,173
9145,583,513,273
9161,602,512,400
9177,438,513,324
9193,513,511,193
9209,369,511,112
9224,488,359,699
9240,550,428,658
9256,631,501,564
9272,626,511,491
9288,466,512,550
9303,495,512,177
9319,475,512,656
9335,504,510,157
9351,511,510,154
9368,435,1019,806
9383,389,522,182
9398,453,469,449
9414,474,394,757
9430,418,470,153
9446,461,371,238
9462,452,494,346
9478,503,511,181
9493,438,511,174
9509,468,513,700
9525,506,513,231
9541,510,511,243
9557,423,509,141
9572,495,512,162
9588,396,512,115
9604,492,512,113
9620,509,512,150
9636,441,512,106
9652,440,513,167
9667,502,512,124
9683,431,512,756
9699,500,512,169
9715,467,512,207
9731,458,513,134
9746,490,512,164
9762,509,512,165
9779,461,1022,155
9793,539,583,84
9810,494,321,671
9826,510,385,311
9840,451,496,91
9857,398,947,144
9873,495,567,657
9889,399,353,108
9905,701,231,712
9920,420,514,161
9936,458,734,574
9952,429,543,167
9968,502,516,165
9984,509,513,419
10000,411,513,125
10015,498,181,420
10031,509,471,136
10047,511,507,135
10063,555,511,344
10079,419,513,189
10094,496,586,192
10110,509,501,490
10126,512,510,140
10142,541,511,700
10158,489,509,769
10174,459,510,190
10189,718,511,505
10205,613,512,696
10221,489,474,407
10237,502,554,137
10253,595,380,322
10268,369,514,640
10284,397,748,144
10300,470,721,134
10316,438,307,182
10332,492,439,280
10348,507,500,673
10363,424,511,171
10379,496,509,402
10395,463,511,225
10411,503,513,236
10427,472,512,219
10442,500,510,202
10458,504,510,645
10474,510,512,289
10490,512,513,669
10506,506,512,154
10523,766,1019,143
10537,482,443,220
10553,417,392,193
10569,602,591,127
10585,402,513,641
10600,493,432,92
10617,502,491,214
10632,503,613,105
10648,735,639,134
10664,383,369,159
10680,495,495,274
10696,509,511,173
10711,512,513,288
10727,416,512,199
10743,500,510,178
10759,406,510,722
10775,443,511,145
10791,500,511,133
10806,453,513,465
10822,504,513,132
10838,403,512,185
10853,497,512,91
10870,510,513,145
10885,512,512,158
10901,507,512,112
10918,472,798,222
10933,505,549,125
10959,500,517,186
10969,511,513,118
10980,509,512,729
11014,510,513,252
11024,484,513,752
11035,505,515,205
11045,429,516,185
11079,487,512,225
11089,508,516,237
11101,422,472,176
11112,500,177,472
11123,453,470,627
11139,504,508,707
11154,510,512,227
11170,505,740,308
11186,507,459,261
11202,509,364,268
11218,512,493,157
11233,511,509,218
11249,512,512,147
11265,513,511,370
11281,443,515,789
11297,395,511,316
11313,494,510,349
11328,510,510,423
11344,509,511,244
11360,511,511,162
11376,510,512,409
11392,510,513,235
11407,502,513,261
11423,479,514,235
11440,508,1019,218
11455,454,363,615
11471,401,493,281
11487,497,509,206
11502,488,512,137
11518,507,662,345
11534,511,742,163
11550,492,635,779
11566,464,528,231
11582,505,514,172
11595,509,6,332
11613,510,427,243
11629,510,500,229
11645,503,758,174
11661,416,544,201
11674,492,6,161
11692,506,421,237
11708,512,501,338
11724,498,512,159
11740,414,695,200
11755,495,536,202
11771,509,516,293
11787,448,512,208
11802,446,32,209
11819,437,451,361
11834,376,504,147
11850,495,511,234
11866,508,513,235
11882,433,512,204
11898,502,583,184
11913,510,425,141
11929,400,227,150
11945,387,490,174
11961,479,478,154
11977,508,508,180
11993,495,488,214
12008,423,711,145
12024,500,393,441
12040,498,413,210
12056,463,500,176
12072,386,510,502
12087,383,513,695
12103,383,512,189
12119,494,510,540
12136,509,1019,474
12151,620,451,169
12167,425,317,174
12182,497,801,344
12198,495,441,142
12214,508,754,309
12230,445,573,667
12246,488,526,191
12262,502,514,150
12277,508,393,447
12293,512,335,139
12309,434,477,189
12325,431,507,137
12341,486,513,125
12356,509,512,247
12372,506,513,133
12388,511,513,446
12404,735,510,115
12420,406,510,178
12436,542,278,155
12451,425,474,281
12467,435,520,174
12483,501,783,388
12499,510,413,263
12515,512,500,299
12530,482,511,666
12546,507,829,101
12562,513,552,116
12578,743,518,716
12594,495,514,494
12610,442,512,116
12625,503,513,121
12641,400,498,130
12657,416,307,136
12673,416,487,131
12689,478,510,117
12705,505,653,688
12720,431,692,502
12736,501,535,119
12752,510,294,192
12768,511,485,107
12784,512,508,206
12799,602,795,505
12815,487,661,222
12831,505,560,460
12846,438,49,216
12863,502,453,254
12878,510,505,411
12894,508,538,162
12910,512,511,180
12926,505,303,223
12942,470,290,876
12958,507,484,260
12973,511,509,293
12989,510,511,230
13005,457,966,803
13021,490,436,174
13037,509,502,259
13052,512,512,258
13068,507,512,561
13084,510,512,441
13100,511,512,187
13116,509,510,728
13133,495,1011,713
13147,507,575,531
13163,509,520,204
13179,511,513,516
13204,512,513,235
13215,512,512,256
13227,511,466,219
13242,513,367,588
13260,462,406,188
13274,526,601,722
13290,658,641,713
13306,442,361,409
13321,502,576,229
13356,412,520,194
13366,381,513,157
13377,374,512,220
13388,488,395,422
13401,550,552,691
13416,455,177,347
13432,493,412,747
13448,510,498,201
13464,393,511,490
13480,429,512,145
13495,501,513,246
13511,511,513,770
13527,401,512,258
13543,477,510,458
13559,364,974,323
13575,410,571,231
13590,423,519,194
13606,478,513,163
13622,466,238,229
13638,506,808,173
13654,512,456,229
13669,512,615,237
13685,484,525,262
13701,481,175,208
13717,395,469,190
13733,494,506,245
13749,509,512,128
13763,511,512,90
13780,481,665,483
13796,508,689,248
13812,509,582,243
13828,511,256,160
13843,506,437,141
13859,509,843,161
13875,491,522,495
13891,508,336,122
13907,423,481,118
13923,494,671,140
13938,510,579,710
13953,460,258,92
13970,505,480,741
13986,510,508,710
14002,510,510,691
14017,511,511,630
14033,511,511,175
14049,512,512,145
14065,663,515,502
14081,442,510,288
14096,485,510,164
14112,503,706,183
14128,725,358,603
14144,442,668,158
14160,449,270,198
14176,388,469,193
14191,485,506,209
14207,445,632,506
14223,503,854,745
14239,475,568,219
14255,510,519,566
14270,475,513,263
14286,507,513,173
14302,496,512,302
14317,498,95,226
14334,510,369,233
14350,510,494,592
14365,547,511,141
14381,394,512,200
14397,430,513,757
14413,501,513,753
14429,509,511,626
14444,404,832,140
14460,494,552,172
14476,442,501,210
14492,418,516,686
14508,425,513,196
14524,492,513,235
14539,508,512,133
14555,511,512,327
14571,729,512,706
14587,458,513,248
14603,389,511,194
14618,496,512,239
14634,481,512,188
14650,508,513,220
14666,437,505,191
14682,459,517,140
14698,505,496,183
14713,512,506,139
14729,512,176,186
14745,511,468,190
14761,505,631,198
14777,510,696,267
14792,448,536,173
14806,527,6,193
14824,406,402,224
14841,490,1019,156
14856,509,537,121
14872,511,163,102
14887,516,312,147
14903,466,488,307
14920,483,1018,158
14935,436,626,307
14951,400,523,176
14966,489,626,168
14982,508,535,213
14998,504,535,167
15014,502,422,160
15030,685,428,156
15046,407,547,125
15060,496,201,89
15077,416,472,222
15093,496,507,489
15109,507,513,150
15125,508,691,334
15141,490,1019,221
15156,502,608,199
15170,422,6,497
15188,502,439,216
15204,510,504,181
15219,510,511,137
15236,503,1018,644
15250,530,74,196
15267,398,456,221
15283,392,614,166
15299,494,418,169
15314,493,500,144
15330,464,511,209
15346,450,512,292
15362,491,678,113
15378,508,261,119
15393,658,456,623
15408,475,505,75
15425,419,511,177
15441,528,517,291
15457,570,501,144
15473,378,509,182
15488,493,510,233
15505,406,1019,224
15520,485,629,263
15536,508,327,290
15552,513,339,256
15567,484,490,292
15583,456,510,265
15599,504,513,388
15615,506,513,497
15631,444,564,322
15647,503,391,486
15662,510,666,510
15690,512,463,466
15700,510,339,507
15711,511,489,509
15726,468,514,510
15750,504,665,513
15760,509,549,510
15773,510,692,480
15807,511,710,508
15817,511,600,510
15827,509,524,489
15837,489,515,411
15852,474,512,449
15868,496,513,504
15884,434,513,378
15900,619,628,411
15915,418,202,223
15931,500,475,285
15947,500,566,257
15963,510,629,232
15979,406,421,204
15995,498,541,273
16010,507,519,235
16026,511,383,628
16042,440,514,182
16058,459,368,204
16074,492,494,215
16089,508,510,210
16105,493,512,452
16121,505,512,447
16136,587,513,81
16153,463,509,175
16169,468,510,144
16184,571,510,263
16200,632,513,370
16216,490,513,148
16232,509,512,688
16248,719,513,274
16262,438,512,66
16279,413,512,168
16295,499,513,133
16311,511,512,319
16326,513,511,96
16342,512,512,142
16358,507,526,174
16374,508,605,107
16390,510,524,169
16406,510,514,165
16422,517,841,157
16437,510,435,158
16453,395,626,151
16469,496,526,199
16485,724,514,642
16501,472,513,307
16515,475,54,150
16532,506,311,145
16548,517,487,301
16564,509,510,369
16581,420,1018,129
16596,496,623,137
16611,510,526,205
16627,511,514,181
16641,452,6,205
16659,503,712,246
16675,468,323,256
16690,496,539,224
16706,511,687,251
16722,512,324,199
16738,510,223,232
16754,615,333,183
16769,425,708,163
16785,489,537,165
16801,491,515,166
16817,457,207,212
16833,441,698,160
16849,485,632,168
16864,509,527,154
16880,513,515,482
16896,450,123,156
16912,490,602,112
16927,508,50,142
16943,511,453,371
16959,508,505,223
16975,509,510,174
16991,493,512,149
17007,509,512,117
17023,464,513,136
17038,510,749,144
17054,508,542,311
17070,506,516,334
17086,487,513,264
17102,449,512,198
17117,503,512,278
17133,500,513,216
17149,511,525,192
17165,507,514,532
17181,508,190,136
17197,509,472,168
17212,511,506,258
17228,423,511,159
17244,494,513,252
17260,397,751,122
17276,469,542,457
17291,506,516,160
17306,507,54,744
17323,656,286,577
17339,412,193,137
17355,447,810,109
17371,397,642,153
17384,481,6,136
17402,561,405,710
17418,384,498,100
17434,387,510,346
17450,406,735,118
17465,525,540,639
17480,397,384,74
17497,499,539,354
17513,502,516,703
17529,498,513,621
17544,508,543,191
17560,514,459,441
17576,423,147,667
17592,489,467,157
17608,504,507,611
17623,506,710,169
17639,511,537,410
17655,396,515,231
17671,497,513,182
17687,510,513,117
17703,435,599,157
17718,479,322,133
17734,506,488,257
17750,513,509,128
17766,517,512,148
17782,392,513,460
17797,488,727,117
17813,507,539,171
17827,442,6,124
17845,448,401,219
17861,492,498,100
17876,579,1019,85
17892,462,591,593
17907,507,522,94
17924,501,276,190
17940,433,483,147
17956,446,509,107
17971,473,512,103
17986,417,513,94
18003,476,512,132
18019,457,512,340
18035,478,513,223
18050,487,510,120
18076,511,531,191
18086,508,667,113
18098,437,532,211
18114,696,515,516
18129,541,513,711
18145,624,512,122
18161,395,512,122
18175,380,21,82
18204,521,449,202
18215,390,504,100
18225,397,512,179
18240,496,513,653
18256,748,512,624
18296,448,512,288
18307,488,509,584
18317,508,511,320
18327,440,510,650
18337,410,847,132
18351,497,555,138
18367,510,520,267
18382,511,164,182
18398,509,401,425
18414,416,934,706
18430,402,231,335
18446,380,452,522
18461,486,505,91
18477,373,511,129
18493,429,512,117
18509,449,513,128
18525,404,513,671
18541,442,512,155
18557,388,1018,137
18572,366,602,580
18587,445,523,59
18604,389,514,149
18620,480,513,208
18636,427,512,236
18651,444,512,128
18667,496,511,150
18683,421,454,361
18699,721,748,156
18715,385,466,137
18730,495,381,195
18746,459,527,410
18760,502,6,194
18778,471,427,255
18794,502,501,702
18809,499,511,223
18825,499,513,179
18841,487,512,308
18858,599,1018,240
18873,418,605,290
18889,470,524,223
18904,502,399,694
18920,521,321,209
18936,511,898,218
18952,509,152,249
18968,550,397,501
18983,509,497,654
18999,455,510,139
19015,449,512,761
19031,505,850,240
19047,509,320,234
19063,515,391,237
19078,511,654,189
19094,509,443,168
19110,399,648,429
19126,499,686,239
19142,471,535,263
19157,501,515,582
19173,508,729,231
19189,430,332,292
19205,439,489,353
19221,375,510,233
19237,403,512,211
19252,480,705,162
19268,504,537,439
19284,446,516,203
19300,432,513,312
19316,503,412,614
19331,474,558,144
19347,511,753,189
19363,380,542,522
19379,494,516,244
19395,509,512,699
19411,509,798,655
19426,469,558,650
19442,655,206,180
19458,482,473,227
19475,501,1018,150
19490,551,594,183
19506,410,485,162
19521,479,513,368
19537,558,440,668
19553,464,652,334
19569,501,574,200
19585,509,509,660
19600,516,570,350
19616,513,462,272
19632,510,345,264
19648,462,493,189
19664,510,511,169
19680,704,841,300
19695,476,553,185
19711,508,517,178
19727,438,536,122
19743,479,108,265
19759,428,383,199
19774,501,495,197
19790,479,680,376
19806,505,711,127
19822,465,140,629
19838,506,701,201
19854,509,536,235
19867,510,6,218
19885,510,423,203
19901,511,514,131
19917,512,406,144
19931,488,497,98
19948,454,870,190
19964,467,769,250
19980,411,258,185
19996,498,481,221
20012,510,509,133
20027,512,512,180
20043,488,512,207
20059,469,512,257
20075,452,539,588
20091,385,549,386
20106,495,755,174
20122,510,413,438
20138,511,291,271
20154,511,484,180
20170,434,508,186
20186,457,512,235
20201,504,513,196
20217,469,582,179
20233,503,612,136
20249,510,509,176
20265,497,540,150
20280,509,382,184
20296,504,460,204
20312,509,505,206
20328,420,511,562
20344,499,513,189
20360,510,513,164
20375,410,511,579
20391,500,510,746
20407,511,511,147
20423,446,513,173
20439,498,512,139
20456,514,1018,225
20470,516,631,146
20486,509,539,168
20502,491,662,189
20518,694,531,394
20534,577,610,215
20549,390,524,429
20565,378,299,239
20581,417,486,188
20597,496,510,778
20623,514,504,447
20633,502,511,224
20644,419,605,749
20659,493,57,141
20679,435,454,216
20693,506,1019,354
20708,505,595,226
20723,492,524,196
20739,436,514,173
20755,399,512,254
20791,493,513,283
20801,520,513,502
20811,507,633,228
20821,512,607,233
20834,509,437,220
20850,512,591,192
20866,510,544,235
20882,521,546,228
20897,520,423,243
20913,508,595,204
20929,432,765,215
20945,501,385,217
20961,503,321,494
20977,501,462,184
20992,511,507,222
21008,505,889,250
21024,508,369,215
21040,443,496,129
21056,479,511,755
21071,508,737,122
21087,512,340,470
21103,798,397,382
21119,482,499,454
21135,508,593,250
21151,507,423,604
21166,445,485,227
21182,500,510,414
21198,506,511,247
21214,508,513,149
21230,509,512,270
21245,511,509,426
21261,511,509,115
21277,541,510,369
21293,485,512,244
21309,725,513,419
21325,444,513,243
21340,503,512,265
21357,513,1018,636
21372,512,610,215
21388,500,524,504
21404,508,513,590
21420,422,685,226
21435,493,165,270
21451,508,588,161
21467,511,522,260
21483,509,513,235
21499,470,520,295
21514,505,513,261
21530,495,512,417
21546,509,512,415
21562,510,511,414
21578,510,511,220
21594,510,513,292
21607,472,6,548
21625,458,424,272
21641,438,501,189
21657,478,510,191
21673,456,512,183
21688,505,513,182
21704,510,512,807
21720,515,509,201
21737,511,1018,179
21750,511,6,202
21767,544,448,328
21783,506,505,136
21799,506,511,265
21815,510,511,226
21832,412,1018,186
21847,490,633,562
21862,508,528,325
21878,512,514,191
21892,509,6,240
21910,510,402,312
21926,605,498,734
21941,430,806,306
21957,484,549,262
21973,511,518,217
21989,508,514,360
22005,511,630,265
22020,443,753,221
22036,491,491,250
22052,508,578,246
22067,473,52,269
22084,506,435,261
22099,504,502,421
22115,510,512,386
22131,509,513,169
22147,626,513,172
22163,440,876,533
22179,687,524,388
22194,489,376,306
22210,510,883,199
22226,508,350,353
22242,511,205,537
22258,492,191,194
22273,510,809,320
22289,510,844,245
22305,396,717,194
22321,495,429,453
22336,450,17,308
22353,503,450,486
22368,487,504,447
22384,505,511,504
22400,512,422,529
22416,432,501,941
22432,469,511,421
22447,715,513,357
22463,488,514,491
22479,467,510,353
22495,495,509,491
22511,480,511,452
22527,644,513,535
22542,471,513,241
22558,398,512,198
22574,468,514,401
22590,437,512,336
22606,491,591,270
22621,477,667,333
22637,507,531,283
22653,482,515,284
22669,508,512,282
22685,511,513,339
22701,509,512,297
22716,437,512,322
22732,464,511,293
22748,507,503,292
22764,439,513,242
22780,433,512,326
22795,502,520,234
22811,510,514,256
22827,512,512,297
22843,508,512,254
22859,509,513,297
22875,467,513,261
22890,437,513,188
22906,479,512,168
22922,507,485,145
22938,511,427,165
22954,512,344,224
22970,511,490,241
22985,511,509,220
23001,398,512,205
23017,487,512,243
23033,512,513,256
23227,511,510,233
23237,514,511,258
23248,510,510,423
23258,511,511,376
23268,509,513,194
23278,510,513,219
23288,508,514,606
23298,513,513,223
23309,511,780,186
23320,511,546,238
23330,506,517,210
23340,508,513,210
23350,513,512,214
23360,511,498,807
23370,514,683,222
23381,519,6,217
23391,511,407,307
23401,507,499,355
23411,508,912,203
23422,474,657,185
23432,417,443,218
23442,498,464,170
23453,408,565,144
23463,497,547,460
23473,510,516,752
23483,508,6,247
23493,511,388,336
23503,509,496,207
23514,509,509,217
23525,510,513,221
23535,451,1018,225
23546,426,595,158
23556,416,473,187
23571,439,249,191
23586,612,427,202
23602,462,502,129
23618,502,512,209
23634,510,645,195
23650,511,760,405
23755,405,441,140
23765,488,217,205
23775,434,575,151
23785,501,306,130
23795,510,389,186
23805,491,497,184
23815,505,633,170
23825,510,694,184
23835,460,376,160
23845,446,331,175
24059,502,490,218
24069,482,510,276
24080,504,513,542
24092,485,512,272
24102,483,621,228
24113,466,497,289
24124,499,380,190
24134,473,488,274
24145,506,535,175
24156,512,475,153
24166,499,742,185
24176,495,582,257
24187,502,256,191
24197,508,484,225
24207,463,637,166
24217,408,523,180
24227,566,394,186
24237,470,580,210
24248,440,575,741
24258,403,463,183
24268,498,353,257
24278,501,372,774
24288,489,412,345
24299,510,464,210
24310,471,506,244
24321,489,511,246
24331,495,513,253
24342,509,513,247
24352,488,512,234
24362,463,511,229
24373,416,510,244
24383,499,512,471
24393,511,511,669
24403,494,513,213
24413,510,599,202
24423,509,238,181
24433,506,478,209
24443,509,508,193
24454,512,510,223
24464,511,510,216
24474,512,511,243
24484,508,511,678
24494,511,510,223
24505,511,511,202
24520,512,513,200
24536,505,512,171
24551,436,513,167
24567,500,513,733
24583,464,511,172
24599,480,513,301
24615,501,511,272
24630,510,513,211
24646,510,678,294
24662,510,533,259
24678,511,515,304
24694,418,513,239
24710,470,278,473
24725,506,361,223
24741,511,493,212
24758,511,1018,292
24773,510,621,603
24787,511,6,284
24804,511,401,297
24820,512,498,294
24836,512,511,276
24853,493,1019,267
24868,508,616,287
24882,504,25,357
24899,510,379,242
24915,511,495,285
24931,511,510,276
24947,512,697,411
24963,512,590,243
24978,512,212,232
24994,490,553,232
25010,481,515,257
25026,506,456,183
25042,509,505,167
25057,509,511,881
25073,511,511,219
25089,500,513,249
25105,509,511,217
25122,512,1018,250
25137,512,599,226
25152,512,229,297
25168,430,478,286
25184,500,507,481
25200,510,511,750
25216,467,513,192
25233,495,1018,670
25247,510,393,348
25263,506,243,225
25279,493,636,245
25295,510,517,228
25311,511,645,256
25324,509,6,261
25342,508,401,577
25358,510,666,281
25374,511,654,217
25390,512,473,215
25405,680,366,208
25421,395,687,621
25437,479,555,255
25453,506,559,236
25469,511,519,290
25485,511,513,250
25500,498,513,306
25516,508,513,211
25532,507,512,273
25548,508,819,249
25564,513,615,272
25580,513,290,216
25595,510,390,521
25611,446,231,242
25627,589,715,216
25643,435,539,271
25659,501,382,261
25674,498,226,267
25690,439,334,264
25706,502,678,232
25722,510,400,229
25738,523,456,216
25754,495,506,214
25769,507,512,254
25785,509,511,205
25801,439,513,206
25817,422,513,657
25833,479,511,276
25848,507,511,297
25864,502,510,190
25880,510,511,153
25896,512,512,185
25912,511,511,180
25927,512,511,186
25943,455,513,161
25959,505,513,306
25975,582,513,157
25991,484,997,220
26007,402,573,192
26022,389,520,215
26038,478,513,196
26054,405,513,252
26070,656,512,184
26086,463,513,297
26101,505,512,172
26115,735,6,596
26133,421,395,276
26149,487,497,204
26165,509,511,234
26180,512,512,321
26196,512,513,251
26212,510,511,481
26228,509,510,259
26244,545,980,205
26260,697,571,602
26273,496,6,267
26291,509,413,345
26307,416,500,212
26323,585,511,251
26339,495,511,194
26354,474,513,214
26370,510,513,175
26386,429,513,207
26402,483,509,234
26441,432,511,215
26452,660,511,197
26462,457,512,288
26472,505,512,216
26482,469,513,746
26497,494,512,191
26513,510,905,167
26528,510,562,231
26544,511,518,735
26586,499,555,228
26597,515,539,225
26607,505,562,221
26617,444,528,206
26627,484,514,221
26639,477,512,183
26655,509,512,233
26671,506,512,226
26687,514,512,209
26731,512,513,246
26741,510,512,219
26751,507,474,193
26761,522,445,275
26771,504,765,203
26782,512,739,156
26797,407,608,156
26813,497,549,170
26829,455,418,173
26845,504,523,516
26861,754,278,128
26877,483,605,653
26892,507,424,142
26908,511,472,190
26924,490,508,268
26940,508,513,212
26956,509,511,184
26971,511,937,170
26987,513,408,203
27003,508,439,243
27019,510,606,182
27035,410,757,234
27051,484,613,695
27066,508,597,187
27082,508,531,209
27098,505,514,277
27112,431,6,136
27130,422,448,252
27146,479,1018,248
27161,498,585,190
27177,511,521,535
27193,531,731,247
27209,396,540,208
27224,467,516,692
27240,505,513,391
27256,512,513,168
27272,510,512,238
27288,506,513,192
27304,510,513,205
27319,502,513,253
27335,510,487,393
27349,493,6,468
27367,508,766,210
27383,474,664,273
27398,507,546,148
27414,495,517,156
27430,509,513,142
27446,510,513,141
27462,512,363,165
27477,466,445,143
27492,508,23,106
27509,482,450,272
27525,507,504,202
27541,462,512,161
27557,498,512,315
27572,436,513,759
27588,675,511,407
27604,493,933,347
27620,505,417,169
27636,512,354,256
27651,496,492,107
27667,509,888,260
27683,506,590,217
27699,510,522,130
27715,508,514,211
27731,725,513,740
27744,589,6,527
27762,399,405,346
27778,402,499,115
27794,497,511,113
27808,374,513,72
27825,465,513,386
27841,500,499,148
27857,515,751,129
27873,610,193,130
27889,479,579,136
27904,514,670,102
27920,509,533,151
27936,397,515,120
27950,491,6,335
27968,487,414,670
27983,471,499,207
27999,428,510,138
28015,502,893,208
28031,512,163,168
28047,513,408,730
28062,513,499,212
28078,510,511,173
28094,514,511,158
28110,515,511,166
28126,508,513,214
28142,487,514,599
28157,410,719,104
28173,415,538,552
28189,412,480,124
28205,482,524,169
28221,514,547,449
28236,544,371,294
28250,557,6,288
28268,412,731,220
28284,529,542,335
28300,488,517,155
28315,508,512,119
28331,493,512,282
28348,505,1019,158
28361,517,6,476
28379,513,741,683
28395,503,541,114
28410,498,119,191
28426,512,463,445
28442,510,751,160
28458,511,543,119
28474,495,517,197
28488,505,67,122
28505,499,456,192
28522,501,1018,157
28537,544,425,190
28553,463,949,497
28569,495,653,666
28584,400,737,208
28600,499,540,179
28616,475,515,183
28630,498,6,193
28648,498,395,267
28663,475,497,193
28679,510,972,166
28695,413,416,164
28711,442,747,160
28727,490,315,201
28742,399,487,205
28759,417,1019,211
28774,430,596,186
28790,496,524,191
28806,512,514,275
28819,450,6,363
28837,416,994,248
28853,497,574,301
28869,464,523,234
28885,503,513,311
28901,481,588,250
28916,509,566,314
28932,512,527,289
28948,513,320,212
28964,507,307,201
28980,510,413,224
28995,509,349,252
29011,509,381,266
29027,503,490,259
29043,492,509,604
29059,504,512,253
29075,509,511,681
29090,472,514,251
29106,503,510,200
29122,509,511,207
29138,463,510,277
29154,501,512,634
29169,510,513,250
29185,498,513,231
29201,482,512,231
29217,473,513,524
29233,507,512,343
29249,471,512,321
29264,440,512,419
29280,479,513,247
29296,473,513,233
29312,494,513,210
29328,491,511,291
29343,487,513,332
29360,511,1018,776
29375,512,587,711
29391,452,522,393
29407,477,513,240
29423,507,512,781
29438,473,512,323
29454,495,493,265
29468,492,6,772
29486,508,440,252
29502,473,834,240
29517,502,553,311
29533,512,517,285
29549,494,513,523
29565,508,512,315
29580,509,21,332
29596,510,698,289
29612,510,536,322
29627,511,48,313
29644,511,443,327
29660,464,506,220
29676,629,513,377
29691,404,513,137
29707,472,512,173
29723,440,513,172
29739,504,514,195
29755,415,508,225
29770,498,509,212
29786,507,510,169
29802,435,511,235
29818,487,513,230
29834,462,673,246
29850,500,532,272
29865,509,453,261
29881,491,368,253
29897,443,365,253
29913,490,494,322
29929,428,742,210
29944,498,542,301
29960,501,516,294
29976,504,514,254
29992,511,530,277
30008,505,647,293
30024,509,530,291
30039,508,514,266
30055,507,296,214
30071,510,485,285
30087,504,510,264
30103,510,512,240
30118,493,513,262
30134,456,998,256
30150,499,574,275
30166,443,520,227
30180,504,6,283
30197,510,401,376
30213,510,748,271
30229,509,496,237
30245,497,216,310
30261,462,476,244
30277,451,507,241
30292,475,513,296
30308,509,746,679
30324,510,543,269
30340,572,516,300
30356,390,512,224
30371,646,216,259
30387,504,342,370
30403,445,490,203
30419,503,510,224
30435,511,497,672
30451,496,510,215
30466,509,513,224
30482,469,512,271
30498,502,511,333
30514,511,509,531
30530,506,510,257
30545,508,511,270
30561,454,513,733
30577,506,512,266
30593,513,872,244
30609,472,558,268
30625,505,518,234
30640,508,513,339
30656,509,605,263
30672,510,425,217
30688,510,558,258
30704,508,519,340
30719,462,515,283
30735,482,512,295
30751,451,513,279
30767,503,513,324
30783,510,512,353
30799,504,512,299
30814,509,512,295
30830,502,513,284
30846,502,512,643
30862,507,488,562
30878,510,372,244
30893,510,382,221
30909,406,496,606
30925,499,510,234
30941,510,512,318
30957,456,513,217
30973,506,513,215
30988,513,511,265
31004,451,511,196
31020,504,511,204
31036,650,513,163
31052,406,903,788
31067,445,562,254
31083,501,112,307
31099,511,355,178
31113,496,6,185
31131,512,404,220
31147,505,1019,243
31162,507,610,202
31178,509,525,203
31194,509,514,379
31210,504,513,608
31226,479,689,801
31241,506,565,236
31257,521,522,117
31273,500,657,304
31289,492,432,166
31305,505,755,177
31321,510,492,241
31336,511,538,613
31352,509,594,280
31368,498,339,274
31384,509,319,249
31400,501,696,547
31415,509,543,247
31431,512,175,300
31447,512,440,251
31463,512,740,239
31479,518,341,208
31495,584,464,301
31510,478,268,283
31526,506,805,347
31542,510,328,272
31558,496,567,284
31574,484,338,236
31589,506,297,259
31605,459,474,271
31621,479,610,274
31637,508,570,272
31653,497,519,279
31669,495,363,276
31684,509,460,336
31700,509,526,468
31716,494,363,270
31732,508,836,263
31748,475,442,265
31763,493,469,644
31779,509,480,294
31795,510,382,227
31811,510,458,330
31827,512,497,220
31843,513,511,196
31858,611,887,360
31874,500,649,700
31890,508,613,208
31906,498,515,225
31922,487,278,233
31937,506,591,198
31953,507,601,220
31969,500,432,218
31985,475,541,206
32001,500,516,176
32017,511,601,754
32032,511,524,159
32048,509,514,166
32064,510,523,381
32080,496,514,211
32096,464,511,282
32111,504,512,218
32127,510,513,322
32143,425,446,189
32159,402,722,586
32175,525,432,337
32191,456,606,132
32206,479,245,202
32222,507,259,294
32238,438,691,347
32254,502,703,737
32270,510,605,166
32285,476,473,147
32301,471,632,576
32317,430,730,237
32333,479,654,321
32349,763,570,477
32365,497,520,210
32380,720,513,272
32396,430,180,222
32412,641,489,143
32428,398,753,760
32444,488,501,306
32459,495,321,177
32475,479,544,273
32491,508,330,336
32507,512,539,207
32523,512,938,264
32539,512,406,226
32554,510,171,208
32570,506,469,236
32586,511,506,505
32602,509,512,171
32618,443,512,452
32634,615,512,524
32649,445,512,294
32665,357,512,187
32680,501,509,77
32697,365,917,111
32712,365,138,87
32727,581,306,71
32744,387,389,564
32760,591,536,672
32776,478,515,100
32792,561,513,400
32807,367,512,315
32823,409,438,105
32839,504,662,268
32855,603,576,183
32870,401,534,74
33885,,513,149
33895,1,129
33905,694,510,723
33915,399,965,119
33925,447,570,225
33935,503,520,699
33945,495,231,160
33955,510,569,162
33965,512,520,545
33975,421,514,153
33985,479,512,188
33995,513,513,378
34005,399,511,736
34015,593,512,136
34025,395,511,159
34035,547,513,182
34045,506,456,130
34055,404,646,127
34065,495,290,185
34077,510,606,369
34087,511,435,337
34097,501,629,572
34107,476,638,120
34118,497,345,208
34129,505,555,215
34139,510,518,178
34149,466,509,285
34159,503,186,190
34170,510,471,458
34181,507,507,256
34192,466,765,246
34203,497,174,220
34213,493,469,762
34223,505,1019,803
34233,507,615,186
34243,411,654,250
34254,433,488,196
34264,407,546,437
34274,565,516,220
34284,586,551,345
34294,417,517,719
34304,409,513,193
34315,425,513,156
34325,442,512,555
34335,472,511,205
34345,506,513,464
34355,492,115,164
34365,439,463,433
34375,501,506,152
34386,510,513,725
34396,659,1018,517
34406,430,6,629
34416,419,406,184
34426,499,498,349
34436,692,510,148
34446,498,511,209
34457,481,513,177
34468,506,513,677
34484,516,513,130
34501,431,1019,317
34516,429,605,305
34532,498,524,660
34548,553,514,277
34563,498,513,138
34579,516,590,512
34595,513,522,148
34611,447,455,267
34627,504,480,698
34642,559,509,686
34657,501,25,265
34674,544,427,270
34690,472,501,246
34706,506,511,228
34722,510,513,163
34737,510,685,233
34753,421,534,633
34769,463,495,376
34785,505,524,204
34801,502,518,798
34816,510,542,218
34832,509,516,157
34848,412,513,168
34864,493,502,539
34880,506,319,641
34896,480,487,139
34911,490,509,153
34927,430,680,171
34943,499,533,188
34959,508,516,737
34975,505,385,111
34990,508,552,313
35006,465,539,154
35022,403,500,163
35038,472,262,187
35054,409,394,302
35070,486,497,594
35086,500,1019,202
35101,506,626,547
35115,501,6,189
35133,528,334,662
35149,471,328,183
35164,537,769,209
35180,469,392,833
35196,505,497,408
35212,509,510,455
35228,497,513,195
35244,482,512,197
35259,509,514,288
35275,502,483,178
35291,474,277,705
35307,442,482,715
35323,462,508,364
35338,505,513,656
35354,583,838,248
35368,397,6,168
35386,497,408,254
35402,510,499,670
35417,482,742,284
35433,447,428,212
35449,499,180,751
35465,503,470,204
35481,511,798,733
35497,501,548,640
35512,503,516,217
35528,513,513,132
35544,436,512,665
35560,643,307,131
35576,436,749,226
35591,499,542,200
35607,503,624,708
35623,515,540,229
35639,590,618,428
35655,493,526,200
35671,492,514,236
35686,495,512,215
35702,502,263,200
35718,514,623,252
35734,429,527,175
35750,530,514,196
35765,492,513,197
35781,516,277,211
35797,506,620,175
35813,465,546,243
35829,492,545,638
35845,502,485,164
35860,476,423,213
35876,507,496,224
35892,502,347,266
35908,483,279,239
35924,514,590,211
35939,513,522,309
35955,475,513,261
35971,496,512,285
35987,443,828,297
36003,499,553,262
36016,509,6,259
36034,504,400,236
36051,501,1018,296
36064,510,6,247
36082,510,420,232
36097,496,501,223
36113,491,771,164
36129,509,545,149
36145,460,516,185
36161,454,513,605
36174,505,6,230
36192,510,411,432
36208,494,500,236
36224,511,510,218
36240,513,510,757
36256,514,511,202
36271,480,513,174
36287,476,513,143
36303,502,509,248
36319,509,510,176
36335,489,510,240
36350,508,512,142
36366,510,511,248
36382,511,511,195
36398,501,514,304
36414,509,692,737
36430,485,536,181
36445,507,515,142
36461,501,516,526
36475,441,6,186
36493,461,387,231
36509,505,496,237
36524,513,509,271
36540,516,511,265
36557,464,1018,260
36572,496,639,282
36588,506,528,342
36604,478,514,173
36619,510,512,194
36635,461,502,140
36651,458,511,235
36667,491,421,195
36683,416,719,102
36698,486,185,702
36714,512,675,682
36730,436,534,110
36744,469,6,130
36762,506,426,205
36777,510,502,132
36793,502,510,425
36809,455,513,136
36825,530,512,116
36842,436,1019,291
36857,501,634,136
36872,424,528,154
36888,496,301,196
36904,510,341,197
36920,503,491,741
36936,506,819,213
36951,515,633,204
36967,462,528,255
36983,487,514,224
36999,482,408,220
37015,496,292,287
37031,435,484,345
37046,501,509,607
37062,510,513,230
37078,500,513,323
37094,510,513,245
37110,509,512,147
37125,497,511,749
37142,496,510,226
37157,508,511,267
37174,509,1019,233
37189,506,569,209
37205,509,261,211
37220,508,393,237
37236,509,487,372
37252,481,511,373
37268,507,511,318
37284,460,514,182
37300,505,513,236
37315,451,513,184
37331,472,511,217
37347,506,511,219
37363,497,512,187
37379,501,513,748
37394,508,512,269
37410,486,511,264
37426,509,513,737
37442,509,513,355
37458,511,847,143
37474,511,554,709
37489,441,519,163
37505,500,514,380
37521,482,512,368
37537,509,546,254
37553,509,542,218
37568,449,529,264
37584,502,522,254
37600,507,513,205
37616,499,477,230
37632,509,590,279
37648,504,577,286
37663,508,521,172
37679,491,351,192
37695,498,339,164
37711,498,882,314
37727,502,560,247
37740,506,6,270
37758,503,326,299
37774,511,489,194
37790,516,509,285
37806,517,512,258
37821,511,513,219
37837,514,513,180
37853,505,513,245
37869,494,514,300
37885,510,995,225
37901,510,573,522
37916,510,520,219
37932,510,615,184
37948,470,529,196
37964,495,564,779
37980,497,518,183
37993,505,6,201
38011,515,434,277
38027,510,501,203
38043,504,794,221
38059,483,660,154
38075,498,531,189
38090,488,607,178
38106,514,531,132
38122,507,520,620
38138,628,513,523
38154,420,221,106
38168,480,711,87
38185,507,564,214
38201,510,303,262
38217,499,485,686
38233,512,509,200
38248,508,511,469
38264,425,513,180
38280,503,513,184
38296,479,512,244
38313,510,1019,305
38328,509,284,307
38343,510,374,414
38359,436,495,166
38375,459,510,234
38391,504,513,351
38407,514,512,545
38423,410,512,257
38438,497,599,194
38454,524,456,410
38470,475,506,247
38486,508,511,289
38502,462,513,181
38517,628,510,345
38533,440,510,215
38549,499,982,412
38565,563,410,248
38581,493,796,236
38597,509,624,143
38612,479,553,221
38628,507,518,257
38644,510,466,271
38660,488,781,577
38676,508,598,130
38691,510,544,183
38707,463,531,247
38723,506,582,462
38739,486,539,182
38755,479,563,287
38771,508,526,177
38786,507,528,408
38802,510,358,270
38818,510,571,276
38834,509,520,338
38850,512,513,295
38865,421,513,200
38881,499,508,266
38897,509,525,794
38913,459,513,160
38929,490,512,189
38945,509,528,171
38960,512,552,275
38974,511,8,215
38992,503,408,259
39008,508,702,183
39024,733,142,515
39038,402,466,63
39055,497,617,240
39071,431,651,167
39087,510,309,131
39103,455,487,150
39118,504,509,245
39134,511,511,818
39150,504,512,192
39166,474,512,369
41175,512,508,207
41191,507,844,409
41206,512,554,306
41222,460,518,215
41238,493,514,534
41270,644,558,746
41285,486,396,120
44034,
44044,8,511,162
44054,10,224
44064,509,510,174
44074,511,511,150
44084,457,513,159
44094,503,513,153
44104,510,313,430
44114,509,486,505
44125,508,587,474
44135,502,689,511
44145,495,534,368
44155,495,515,266
44166,501,513,253
44176,507,513,207
44186,503,512,261
44197,508,512,464
44207,486,512,438
44217,435,163,231
44227,501,358,190
44237,510,492,218
44248,460,510,248
44258,502,858,498
44268,484,557,177
44278,511,518,312
44288,514,6,352
44298,493,441,341
44309,505,504,244
44319,511,433,417
44330,512,502,279
44340,510,974,191
44350,510,111,182
44360,452,454,693
44370,504,504,161
44381,480,513,167
44391,510,513,197
44401,462,513,153
44411,673,513,358
44421,501,513,167
44431,508,510,260
44441,498,511,208
44452,512,1018,453
44462,510,585,276
44472,503,522,772
44482,507,513,222
44494,504,513,186
44504,509,513,219
44516,458,513,219
44526,505,511,247
44536,410,367,207
44547,498,581,803
44557,512,521,281
44567,498,513,252
44577,517,512,277
44587,485,499,281
44597,496,515,181
44607,462,513,138
44623,498,513,180
44639,512,541,128
44653,507,519,75
44670,429,482,150
44686,408,575,118
44702,462,542,112
44717,404,448,98
44733,430,499,138
44748,452,523,88
44765,414,225,173
44781,502,476,699
44797,506,508,404
44812,503,934,203
44828,515,609,201
44842,507,6,298
44860,515,434,260
44876,506,502,214
44891,502,979,699
44907,508,600,178
44923,503,405,224
44939,507,577,229
44953,513,6,213
44970,512,380,242
44986,493,414,265
45002,479,499,219
45018,506,510,329
45034,420,513,154
45049,486,512,185
45065,506,514,324
45081,506,511,368
45097,492,511,208
45113,640,510,703
45130,630,1005,535
45142,478,6,168
45160,475,426,739
45176,509,501,350
45192,508,511,149
45208,503,747,251
45223,505,542,369
45239,502,471,267
45255,488,647,432
45271,444,529,177
45287,502,515,250
45303,510,424,855
45318,419,505,186
45334,498,523,203
45350,506,514,341
45366,510,512,193
45382,511,512,170
45397,504,425,349
45413,431,473,139
45429,625,517,432
45445,425,512,376
45461,494,518,130
45477,509,513,171
45492,512,514,124
45508,420,385,125
45524,608,365,167
45540,407,494,741
45556,497,510,341
45571,510,511,108
45587,492,803,206
45602,497,323,91
45619,470,488,170
45635,499,510,213
45650,511,512,146
45753,489,513,228
45763,492,875,194
45773,492,558,158
45783,505,518,162
45793,481,311,144
45803,511,918,336
45813,498,563,67
45823,525,518,364
45833,456,513,159
45843,519,6,116
45853,502,969,276
45864,498,570,198
45874,501,519,115
45884,562,349,666
45894,509,600,117
45904,437,524,95
45919,516,479,152
45935,508,568,126
45951,510,187,102
45965,466,6,172
45982,517,475,229
45998,473,489,133
46014,504,509,807
46030,510,513,180
46046,507,512,150
46061,508,513,148
46077,510,902,171
46093,678,561,761
46108,392,519,96
46125,496,513,490
46141,508,512,243
46156,704,511,612
46171,450,70,278
46188,506,359,730
46204,457,492,601
46220,497,511,188
46235,464,512,317
46252,641,1018,428
46267,652,625,513
46283,492,526,251
46299,509,199,134
46315,505,125,227
46330,506,991,515
46346,534,572,204
46361,487,520,80
46378,449,247,672
46394,445,571,437
46407,432,6,610
46425,442,415,659
46441,501,500,329
46456,509,511,66
46472,452,513,78
46488,422,511,616
46504,494,512,402
46520,507,513,342
46535,515,509,82
46552,505,510,177
46567,506,671,270
46583,525,532,183
46599,644,514,232
46615,377,513,746
46631,427,512,189
46646,503,513,129
46662,510,516,194
46678,395,512,182
46694,498,673,167
46710,516,533,379
46726,521,514,642
46741,512,260,760
46757,512,617,630
46773,485,422,241
46789,511,501,191
46805,511,983,136
46820,509,275,175
46836,509,752,210
46852,491,349,564
46868,496,300,132
46884,509,232,109
46900,509,844,301
46915,510,714,180
46931,512,618,228
46947,499,397,135
46963,509,265,325
46979,500,156,175
46994,442,406,176
47010,504,577,208
47026,506,196,273
47042,517,603,412
47058,504,524,689
47074,509,475,677
47089,510,348,334
47105,506,726,737
47121,389,539,464
47137,463,516,354
47153,396,320,579
47170,451,1019,104
47184,749,285,669
47200,671,431,695
47216,493,877,272
47232,507,564,420
47248,532,520,252
47263,410,314,111
47278,600,52,152
47295,441,454,245
47311,498,504,342
47327,515,350,426
47342,516,136,640
47358,509,464,370
47374,505,507,171
47391,502,1018,193
47406,414,597,776
47422,405,580,190
47437,480,273,110
47453,561,539,659
47469,474,516,269
47485,407,513,206
47501,462,512,161
47517,395,527,141
47532,490,514,164
47548,516,512,405
47564,506,512,107
47580,506,513,142
47596,513,499,128
47611,502,469,608
47627,455,527,114
47643,503,514,524
47658,423,68,514
47675,490,455,415
47690,504,506,192
47706,501,821,230
47722,509,552,312
47738,499,517,176
47754,491,522,281
47770,401,535,150
47785,547,532,111
47801,505,515,131
47817,508,433,128
47833,515,503,117
47849,505,584,133
47864,468,559,138
47880,610,106,431
47896,489,461,116
47912,509,506,263
47928,469,715,314
47944,406,538,803
47959,490,515,487
47975,510,513,116
47991,512,512,247
48007,508,278,181
48023,498,484,159
48040,486,1019,173
48054,527,640,635
48070,486,528,406
48086,483,514,166
48102,522,519,567
48118,425,526,284
48132,397,514,55
48149,592,512,553
48165,405,512,599
48181,462,511,638
48197,470,511,407
48210,508,6,630
48228,512,417,313
48244,644,501,507
48260,470,512,462
48276,442,513,113
48291,501,776,481
48307,562,545,749
48323,491,516,323
48339,573,514,230
48355,499,513,198
48371,505,513,557
48386,433,513,154
48402,502,511,152
48418,496,511,210
48434,509,513,218
48450,720,512,119
48465,629,513,232
48481,476,536,210
48497,397,331,105
48513,648,803,141
48529,491,549,243
48545,491,517,293
48560,510,514,422
48575,447,31,115
48592,506,764,184
48608,511,620,332
48623,513,525,93
48638,463,514,86
48655,554,503,376
48671,563,532,681
48687,393,515,632
48702,360,513,83
48718,399,512,112
48732,368,14,39
48750,394,448,431
48765,383,835,80
48780,385,667,95
48797,522,532,406
48813,574,514,640
48828,373,247,71
48845,379,479,471
48861,442,509,687
48875,369,513,92
48892,384,511,168
48908,381,512,656
48923,378,513,68
48940,398,510,134
48955,419,510,188
48970,469,510,58
48988,396,1018,542
49003,391,638,102
49019,428,529,225
49033,366,515,93
49050,392,512,190
49066,534,527,516
49082,522,380,661
50090,,513,138
50100,0,376
50110,479,579,220
50120,498,532,143
50130,501,450,191
50140,502,526,170
50151,516,549,194
50161,432,544,179
50172,490,427,164
50182,517,438,203
50192,446,624,222
50202,516,526,237
50212,532,582,198
50223,449,522,179
50233,505,538,176
50244,511,516,193
50255,541,591,166
50266,509,539,181
50276,438,515,133
50286,503,6,695
50296,504,385,196
50306,630,796,160
50317,403,548,151
50327,500,6,644
50337,502,1018,408
50347,457,6,340
50358,509,405,448
50368,518,643,445
50378,498,283,739
50389,490,484,153
50399,609,750,496
50409,542,543,275
50419,435,516,431
50429,502,513,599
50439,481,519,207
50449,414,516,451
50460,406,597,304
50471,401,580,279
50481,491,514,384
50491,648,259,617
50502,505,824,320
50512,433,551,206
50522,490,517,392
50532,484,850,446
50542,612,328,673
50552,429,481,627
50563,496,336,312
50573,494,490,495
50583,509,509,269
50593,482,885,356
50603,510,589,175
50613,512,522,207
50623,461,514,210
50633,502,200,218
50643,508,473,216
50653,510,1018,228
50664,455,602,201
50679,487,524,265
50695,501,514,267
50711,508,517,302
50727,494,598,275
50743,513,524,241
50758,515,572,285
50774,500,529,207
50790,510,514,150
50806,503,513,177
50822,467,512,222
50838,499,190,152
50853,511,472,139
50869,494,663,244
50885,506,663,215
50901,501,532,194
50917,491,514,240
50932,468,513,208
50948,503,513,218
50964,510,215,325
50980,509,745,209
50996,498,653,179
51012,507,530,292
51027,509,514,238
51043,510,512,188
51059,510,512,210
51075,502,513,365
51091,509,285,160
51106,513,484,179
51122,510,509,217
51138,511,978,185
51154,500,646,209
51170,497,305,221
51186,432,485,217
51201,492,787,207
51217,491,547,252
51233,508,176,230
51249,510,470,274
51265,505,506,747
51280,505,511,229
51296,509,513,530
51312,510,513,256
51328,509,513,189
51345,507,1019,214
51360,516,613,210
51375,513,525,185
51391,510,739,257
51407,454,615,219
51423,475,126,228
51439,455,840,188
51454,506,148,677
51470,514,466,200
51486,508,587,185
51502,511,717,550
51518,513,538,184
51534,509,515,206
51549,508,184,196
51565,469,410,179
51581,489,500,175
51597,508,911,217
51613,497,642,219
51628,508,608,228
51644,509,313,178
51660,510,694,207
51676,512,589,192
51692,458,251,216
51708,495,362,319
51723,509,648,245
51739,509,547,275
51755,510,554,263
51771,504,571,246
51787,507,519,205
51801,489,42,212
51818,508,370,244
51834,494,495,250
51850,509,510,259
51866,506,512,285
51882,495,957,240
51897,501,569,265
51911,507,6,184
51927,518,6,305
51945,450,423,336
51960,504,990,229
51976,513,572,190
51992,517,520,132
52008,482,514,162
52024,507,512,178
52040,506,513,240
52055,470,513,202
52071,502,544,199
52087,511,200,717
52103,504,756,151
52119,505,659,213
52134,508,386,447
52150,497,582,185
52166,421,674,688
52181,447,533,77
52198,431,515,107
52214,418,513,144
52229,423,512,153
52245,477,512,276
52261,488,512,212
52277,492,511,187
52293,507,513,193
52308,511,489,151
52323,511,35,298
52340,510,451,216
52356,512,503,194
52372,513,511,196
52387,512,513,216
52403,494,812,252
52419,506,668,215
52435,510,531,488
52451,424,202,177
52468,501,1010,464
52482,510,575,191
52498,510,520,249
52514,510,513,217
52530,510,513,287
52546,463,512,236
52562,505,322,230
52577,460,488,216
52593,437,510,168
52609,499,513,183
52625,511,512,256
52641,511,512,167
52656,509,512,258
52672,509,509,188
52689,499,1019,254
52704,507,624,257
52720,510,527,279
52736,511,514,239
52751,436,647,176
52767,502,530,153
52783,475,317,272
52799,508,487,298
52815,510,510,816
52830,510,450,183
52846,510,909,186
52862,496,564,150
52878,478,518,162
52894,508,519,188
52910,505,472,166
52925,507,410,208
52941,510,463,177
52957,512,232,149
52973,512,805,169
52989,513,549,216
53004,505,694,185
53020,510,541,175
53036,417,613,138
53052,496,279,210
53068,510,536,211
53084,496,409,437
53099,447,668,170
53115,503,579,361
53131,513,520,191
53145,509,6,184
53163,511,551,281
53178,506,341,134
53194,509,488,250
53210,510,189,252
53226,514,642,140
53242,508,534,196
53258,513,508,252
53273,511,257,225
53289,511,544,328
53303,509,6,172
53322,517,1019,277
53337,508,371,177
53352,507,494,578
53368,515,872,140
53384,512,557,553
53400,486,519,204
53416,473,516,360
53432,493,513,339
53447,506,397,122
53463,514,621,753
53479,510,431,538
53495,503,221,123
53511,509,489,260
53526,511,621,123
53542,614,637,157
53558,411,329,105
53574,516,370,197
53590,491,273,160
53604,455,490,90
53621,492,476,312
53637,507,415,467
53653,496,642,505
53669,506,473,226
53685,473,409,148
53700,482,262,108
53716,507,407,659
53732,501,498,142
53748,510,511,695
53764,504,512,260
53779,508,513,405
53794,483,514,73
53811,488,512,578
53827,431,509,112
53843,501,511,119
53860,481,1018,837
53874,505,376,209
53890,512,495,184
53905,482,510,89
53922,509,513,353
53938,511,513,106
53953,509,513,185
53969,462,512,174
53985,503,511,237
54001,508,511,204
54017,510,738,301
54032,475,542,188
54048,506,517,449
54064,459,513,232
54080,505,512,309
54096,490,512,334
54112,508,421,170
54127,496,550,231
54143,462,655,229
54159,493,650,185
54175,508,480,665
54191,489,446,733
54206,415,545,346
54222,406,525,244
54238,499,514,367
54254,513,512,132
54270,515,512,267
54286,510,503,163
54301,399,149,144
54317,497,466,251
54333,511,506,173
54350,513,1019,294
54365,510,615,118
54381,497,530,302
54394,507,6,648
54412,511,434,660
54427,510,502,77
54444,517,512,212
54460,510,512,207
54474,510,513,89
54491,440,516,601
54506,623,512,95
54524,456,1019,797
54539,524,580,220
54554,482,536,419
54570,505,541,270
54586,425,516,149
54602,504,513,251
54618,446,513,192
54633,434,512,199
54649,552,512,186
54665,508,513,184
54681,507,513,152
54697,482,512,178
54713,526,512,181
54728,494,520,175
54744,509,513,260
54760,438,513,238
54776,506,512,416
54792,415,512,197
54807,472,449,173
54821,497,6,763
54839,517,866,267
54855,471,557,204
54871,500,519,152
54884,495,6,144
54903,457,1018,325
54918,497,611,174
54932,510,6,231
54950,502,384,253
54965,483,496,244
54981,508,507,278
54997,512,512,266
55013,487,514,163
55029,411,513,115
55044,479,512,586
55060,505,512,148
55076,507,510,141
55092,484,884,724
55108,507,771,210
55124,515,547,617
55139,510,516,195
55155,492,514,359
55171,503,512,669
55185,509,6,512
55203,509,381,132
55218,451,746,214
55233,395,356,83
55250,364,492,108
55266,394,946,116
55282,500,567,707
55297,512,520,157
55313,442,187,185
55329,432,764,238
55344,434,18,177
55361,454,449,203
55377,502,504,212
55392,523,510,114
55409,451,1018,494
55424,456,592,188
55440,498,522,144
55456,507,534,217
55471,513,528,275
55487,513,514,243
55503,507,513,545
55519,424,603,133
55533,490,6,187
55550,405,770,273
55566,400,545,106
55582,498,261,213
55598,510,480,111
55614,471,719,143
55630,507,681,145
55645,508,534,154
55661,511,515,142
55677,507,266,126
55693,458,482,123
55709,499,509,122
55724,511,513,139
55740,510,511,215
55756,511,511,443
55772,509,513,182
55788,511,511,314
55805,511,1019,121
55819,510,605,118
55835,518,545,124
55851,505,517,231
55867,524,513,137
55883,514,512,165
55898,504,512,162
55914,502,384,142
55930,511,538,136
55946,490,557,138
55962,494,283,171
55978,508,568,181
55993,454,398,159
56009,504,536,175
56025,513,141,234
56041,504,465,240
56057,508,506,184
56072,500,512,229
56088,514,512,194
56104,510,710,165
56120,468,667,182
56136,497,532,149
56152,441,515,204
56167,447,512,160
56183,487,512,179
56199,456,512,143
56215,485,512,190
56231,460,512,473
56246,493,475,167
56262,452,344,181
56278,433,490,149
56294,492,510,160
56311,471,1007,210
56326,505,575,203
65517,513,779
73873,76
73883,454,512,174
73893,412,512,146
73903,474,512,157
73913,439,512,178
73923,417,511,174
73933,499,512,147
73943,506,512,153
73953,466,512,222
73963,461,512,246
74104,,512,211
74115,2,172
74126,62
74136,503,512,141
74146,478,512,431
74157,455,512,189
74168,437,513,186
74178,486,513,715
74189,498,511,199
74199,510,512,201
74210,507,512,158
74220,509,512,179
74231,495,512,188
74242,494,513,174
74252,507,512,174
74262,507,513,205
74272,489,512,224
74282,509,513,249
74292,506,512,205
74303,510,511,416
74313,510,511,160
74323,486,513,257
74333,449,513,266
74343,497,511,249
74353,475,512,173
74363,470,512,162
74374,487,513,452
74384,475,511,427
74394,459,512,307
74404,576,513,538
74414,460,512,428
74424,411,512,275
74434,402,512,226
74445,448,512,641
74455,423,512,411
74465,499,512,468
74475,507,511,428
74486,456,513,698
74496,502,513,388
74506,472,511,307
74516,468,512,410
74526,573,512,337
74537,587,512,557
74547,624,511,430
74557,439,512,251
74567,483,512,436
74577,430,511,600
74587,466,512,160
74597,505,513,264
74607,485,511,168
74617,468,512,291
74627,480,511,289
74637,447,513,200
74647,497,512,179
74657,489,512,172
74667,507,513,227
74677,508,512,223
74689,453,512,229
74704,437,512,162
74720,479,513,215
74736,508,512,208
74752,463,512,204
74768,425,512,240
74784,424,512,169
74799,500,512,167
74815,492,512,164
74831,509,512,157
74847,511,512,171
74863,498,512,177
74878,586,512,187
74894,492,513,201
74910,476,512,223
74926,507,512,174
74942,490,512,181
74958,462,512,160
74973,505,513,174
74989,486,511,188
75005,456,512,223
75021,501,513,216
75037,501,512,279
75052,510,511,180
75068,456,512,267
75084,504,512,193
75100,562,512,210
75116,484,512,436
75132,495,512,242
75147,493,512,480
75163,436,512,182
75179,430,512,264
75195,457,513,182
75211,494,512,321
75226,429,512,382
75242,457,512,188
75258,424,512,696
75274,471,512,588
75290,503,513,623
75306,510,512,215
75321,489,512,157
75337,506,511,195
75353,536,512,172
75369,500,513,603
75385,495,512,465
75401,510,512,219
75416,443,512,192
75432,504,512,417
75448,459,511,203
75464,502,511,625
75480,511,512,172
75495,504,513,193
75511,508,512,250
75527,490,512,203
75543,498,512,345
75559,510,512,179
75575,510,512,201
75590,498,512,199
75606,503,513,205
75622,509,512,232
75638,511,512,205
75654,486,513,291
75669,459,512,211
75685,476,512,163
75701,506,513,200
75717,510,513,194
75733,509,512,222
75749,510,512,174
75764,511,512,167
75780,454,513,190
75796,502,512,180
75812,503,512,200
75828,494,512,247
75843,509,512,238
75859,490,513,255
75875,448,513,212
75891,502,512,194
75907,510,513,181
75923,510,511,225
75938,505,512,201
75954,510,513,201
75970,483,512,147
75986,491,513,175
76002,509,512,165
76018,428,513,203
76033,501,512,217
76049,510,512,282
76065,513,512,332
76081,510,511,601
76097,512,511,475
76112,495,513,275
76128,492,512,293
76144,507,512,249
76160,502,512,197
76176,587,513,234
76192,431,512,699
76207,469,512,683
76223,694,513,483
76239,452,512,348
76255,504,512,296
76271,461,512,398
76375,505,513,641
76385,511,513,213
76395,507,512,383
76405,509,513,641
76415,501,512,529
76425,508,494,628
76436,423,564,512
76446,498,424,264
76457,511,434,542
76623,512,549,298
76634,491,560,206
76644,435,549,172
76655,477,496,384
76665,508,553,566
76675,449,549,212
86388,00,249,303
86398,543,270
86409,507,599,218
86419,497,590,345
86429,500,573,374
86439,508,621,263
86449,510,394,306
86460,501,538,334
86470,501,380,297
86480,508,363,451
86490,510,575,306
86501,512,269,346
86512,511,536,233
86522,505,558,187
86532,507,381,240
86542,510,596,715
86553,506,545,202
86563,496,447,229
86573,505,521,285
86583,509,557,291
86593,511,615,301
86603,511,384,286
86613,502,596,249
86623,507,268,240
86633,467,497,209
86643,500,597,298
86653,507,559,242
86663,489,408,188
86673,508,474,274
86683,510,559,284
86693,509,598,272
86703,511,560,282
86713,511,379,269
86723,464,265,238
86733,499,413,288
86743,508,477,254
86753,509,549,245
86763,510,545,288
86773,511,401,259
86783,512,581,204
86793,512,544,284
86803,512,362,256
86813,512,379,269
86823,512,375,265
86833,510,561,235
86843,497,596,327
86853,508,551,195
86863,510,402,213
86873,511,621,279
86883,512,342,215
86893,506,578,252
86903,510,386,268
86913,511,558,232
86923,511,559,233
86933,512,509,214
86949,487,425,267
86965,506,315,270
86980,509,610,270
86996,511,601,308
87012,512,598,243
87028,493,605,253
87044,508,567,283
87059,511,622,247
87075,507,487,256
87091,510,459,242
87107,512,346,232
87123,512,585,212
87139,512,425,252
87154,510,580,257
87170,511,535,319
87186,512,288,313
87202,500,477,306
87218,508,348,254
87234,510,364,304
87249,506,353,369
87265,496,292,369
87281,499,322,198
87297,483,340,208
87313,507,327,286
87328,503,556,352
87344,507,318,236
87360,509,450,241
87376,511,567,201
87392,480,624,256
87407,507,622,316
87423,509,544,371
87439,511,305,264
87455,453,409,291
87471,503,394,311
87487,509,211,351
87502,501,560,340
87518,491,261,208
87534,508,566,245
87550,510,290,283
87566,480,473,285
87581,506,489,235
87597,493,310,260
87613,503,610,207
87629,510,519,306
87645,505,520,317
87661,508,354,254
87676,510,510,280
87692,502,550,304
87708,509,358,368
87724,511,262,285
87740,505,323,312
87756,456,523,341
87771,504,340,348
87787,490,244,336
87803,509,532,273
87819,507,547,222
87835,484,447,278
87850,507,518,329
87866,509,271,264
87882,502,536,311
87898,509,349,339
87914,499,361,332
87930,478,256,305
87945,507,542,233
87961,509,533,254
87977,510,624,281
87993,510,517,275
88009,476,270,202
88024,475,590,319
88040,507,610,325
88056,466,612,768
88072,506,254,222
88088,509,240,218
88104,509,474,287
88119,511,618,291
88135,510,508,224
88151,511,360,244
88167,509,598,379
88183,511,429,286
88199,511,588,318
88214,513,552,378
88230,512,345,357
88246,513,480,331
88262,513,596,224
88278,512,538,239
88293,508,334,279
88309,511,475,280
88325,494,293,222
88341,506,599,653
88357,502,393,317
88373,508,517,328
88388,511,420,327
88404,512,409,267
88420,511,605,330
88436,512,443,364
88452,512,382,260
88467,497,607,281
88483,507,240,321
88499,511,614,240
88515,496,601,317
88531,508,627,354
88547,510,560,313
88562,512,281,323
88578,513,388,290
88594,511,191,376
88610,511,355,336
88626,512,447,252
88642,470,394,240
88657,504,421,320
88673,509,402,280
88689,503,375,301
88705,509,295,247
88721,510,329,234
88736,510,493,231
88752,502,311,247
88768,507,319,272
88784,510,591,196
88800,496,538,231
88816,508,618,235
88831,510,380,337
88847,512,611,333
88863,512,439,256
88879,508,594,295
88895,511,586,285
88910,484,370,309
88926,506,559,260
88942,471,372,299
88958,505,635,293
88974,508,631,316
88990,478,472,299
89373,8
89383,499,471,149
89393,506,395,159
89403,510,479,180
89413,500,480,207
89423,466,458,200
89434,505,592,759
89444,459,553,184
89454,457,579,199
89464,500,546,190
89475,496,379,155
89486,503,551,161
89496,467,333,156
89506,505,331,180
89516,508,474,208
89526,490,471,162
89537,505,557,215
89547,507,551,204
89557,509,606,190
89567,690,569,216
89577,498,540,223
89587,509,588,223
89597,509,487,213
89607,468,403,218
89617,460,242,294
89627,500,457,183
89637,508,575,522
89647,509,391,160
89657,500,446,216
89667,492,570,218
89677,507,500,210
89687,510,529,201
89697,492,515,145
89707,504,513,181
89717,509,511,182
89727,509,511,165
89737,508,450,158
89747,511,318,169
89757,511,547,159
89767,505,451,184
89777,509,579,180
89787,488,540,232
89797,497,424,223
89807,507,552,236
89817,491,574,402
89827,504,207,173
89837,509,317,185
89847,485,552,153
89857,500,478,519
89867,495,451,175
89877,467,569,177
89887,507,365,169
89897,485,433,203
89907,508,418,179
89923,509,566,191
89939,503,493,148
89955,440,596,120
89970,502,579,164
89986,501,277,179
90002,498,298,363
90018,503,479,204
90034,451,526,139
90049,490,201,201
90065,509,372,341
90081,498,555,310
90097,458,352,145
90113,565,590,501
90129,460,440,137
90144,485,563,280
90160,507,593,657
90176,479,236,151
90192,508,585,180
90208,506,536,226
90224,496,585,170
90239,471,440,371
90255,507,576,172
90271,512,495,182
90287,509,348,215
90303,469,596,203
90318,501,298,336
90334,557,596,214
90350,485,283,215
90366,506,406,277
90382,506,246,284
90398,511,551,271
90413,509,623,240
90429,510,541,281
90445,516,212,224
90461,507,594,223
90477,510,609,293
90493,511,336,227
90508,724,586,591
90524,470,351,371
90540,506,599,234
90556,511,447,240
90572,503,566,249
90587,509,584,224
90603,506,364,299
90619,509,410,267
90635,508,561,221
90651,511,580,229
90666,491,591,261
90682,502,597,303
90698,510,521,235
90714,479,348,180
90730,506,452,240
90746,509,512,282
90761,510,615,236
90777,494,544,216
90793,507,609,300
90809,510,487,226
90825,507,331,235
90840,506,487,275
90856,509,580,302
90872,510,418,228
90888,508,549,303
90904,490,524,259
90920,507,604,232
90935,509,603,229
90951,490,411,233
90967,486,422,321
90983,509,493,232
90999,462,534,230
91014,496,281,257
91030,509,576,299
91046,511,312,250
91062,488,273,322
91078,501,457,396
91094,510,133,302
91109,509,596,253
91125,510,584,283
91141,506,413,240
91157,507,617,290
91173,510,348,267
91188,512,375,292
91204,506,571,229
91220,510,448,238
91236,511,611,264
91252,512,568,289
91268,511,603,247
91283,512,417,222
91299,506,583,291
91315,510,340,289
91331,511,586,296
91347,511,535,328
91362,512,327,296
91378,475,456,296
91394,504,593,216
91410,502,503,300
91426,509,610,249
91442,510,532,211
91457,474,543,238
91473,501,613,298
91489,508,610,249
91505,504,448,244
91521,509,561,325
91536,508,516,267
91552,510,541,212
91568,498,596,194
91584,497,608,330
91600,508,592,326
91616,507,483,271
91631,505,359,187
91647,476,572,631
91663,507,263,261
91731,510,417,327
91741,449,605,279
91751,503,614,316
91761,510,270,241
91771,504,370,223
91782,509,368,311
91792,500,516,239
91802,509,360,279
91812,510,549,273
91822,508,334,231
91837,511,577,290
91853,512,291,319
91869,479,270,262
91885,506,288,344
91900,506,531,236
91916,509,526,222
91932,479,533,329
91948,478,608,253
91964,497,261,242
91979,509,328,233
91995,510,605,265
92011,510,596,256
92027,510,314,202
92043,501,388,224
92058,509,599,282
92074,512,505,292
92153,507,556,254
92163,510,470,214
92174,510,475,315
92184,511,602,228
92194,512,549,309
92204,512,532,325
92214,512,580,218
92225,504,525,424
92236,509,544,308
92247,511,554,635
92578,598,309
92588,,295
92598,496,220,284
92608,503,322,282
92618,508,509,359
92628,509,578,267
92638,509,383,279
92648,512,434,316
92659,489,297,287
92669,507,364,316
92679,510,445,285
92689,512,519,305
92699,511,301,218
92709,512,451,203
92719,511,355,200
92729,506,427,226
92739,510,315,252
92749,506,565,288
92759,510,591,342
92769,511,309,382
92779,503,338,217
92789,479,549,442
92799,507,486,268
92809,509,542,323
92819,510,613,327
92829,510,599,265
92839,511,444,213
92849,512,536,293
92859,511,479,241
92869,513,430,257
92879,511,436,277
92889,481,510,190
92899,479,525,332
92909,507,280,299
92919,509,371,273
92929,510,630,254
92939,508,586,335
92949,510,533,314
92959,512,228,242
92969,512,295,315
92979,513,216,304
92989,512,447,330
92999,512,373,365
93009,512,617,394
93019,512,410,363
93029,512,211,306
93039,512,576,362
93049,512,602,340
93060,512,496,294
93071,512,587,330
93081,489,199,251
93091,507,375,256
93102,510,443,193
93114,511,410,240
93124,511,457,242
93134,511,509,222
93150,508,351,323
93166,468,605,272
93182,503,462,240
93198,504,466,307
93213,509,578,248
93229,511,547,342
93245,498,586,282
93261,488,584,306
93277,465,495,233
93292,504,333,250
93308,512,556,749
93324,509,351,239
93340,489,561,716
93356,489,613,262
93372,505,519,361
93387,505,290,323
93403,509,520,272
93419,505,513,247
93435,510,591,220
93451,510,256,320
93467,511,470,310
93482,512,362,365
93498,512,477,254
93514,510,351,286
93530,511,573,338
93546,502,614,263
93561,505,404,273
93577,510,612,353
93593,511,438,413
93609,493,331,289
93625,508,588,338
93641,510,609,413
93656,511,236,343
93672,511,407,404
93688,512,394,263
93704,498,570,358
93720,507,282,219
93735,509,466,366
93751,511,434,276
93767,497,597,380
93783,509,574,425
93799,511,447,282
93815,511,471,357
93830,505,524,270
93846,509,389,288
93862,512,583,223
93878,511,623,362
93894,496,542,322
93910,504,525,334
93925,510,482,382
93941,503,561,293
93957,497,437,349
93973,499,588,234
93989,508,614,297
94004,510,438,241
94020,497,588,292
94036,508,605,386
94052,511,575,343
94068,511,507,356
94084,511,613,242
94099,496,325,289
94115,508,416,228
94131,500,546,239
94147,508,621,299
94163,509,428,248
94178,510,428,285
94194,506,585,323
94210,510,618,317
94226,511,503,254
94242,512,387,310
94258,512,550,245
94273,511,498,221
94289,511,219,280
94305,509,418,263
94321,510,595,253
94337,511,579,258
94353,513,334,320
94368,512,590,241
94384,495,612,283
94400,446,434,254
94416,472,475,258
94432,506,539,319
94447,510,211,260
94463,509,615,357
94479,509,341,311
94495,485,646,343
94511,508,574,271
94527,503,601,333
94542,508,566,274
94558,490,269,349
94574,507,638,417
94590,509,624,304
94606,509,370,355
94621,510,375,318
94637,504,596,768
94653,499,547,312
94669,507,593,222
94685,507,455,264
94701,508,257,337
94716,511,459,573
94732,512,505,317
94748,512,460,374
94764,511,517,267
94780,511,433,298
94795,481,260,342
94811,424,181,268
94827,500,386,361
94843,509,364,363
94859,511,368,272
94875,506,538,352
94890,465,540,274
94906,499,159,204
94922,506,453,257
94938,493,497,224
94954,509,511,225
94969,502,537,330
94985,498,267,353
95001,483,548,226
95017,508,378,320
95033,504,422,346
95049,509,392,318
95064,510,375,392
95080,511,618,276
95096,511,456,327
95112,512,592,385
95128,494,511,269
95143,508,396,311
95159,509,568,226
95175,509,539,309
95191,511,513,241
95207,512,500,261
95223,503,527,302
95238,505,502,261
95254,507,577,260
95270,496,429,428
95286,508,534,242
95302,510,268,239
95317,510,315,299
95333,511,619,267
95349,512,513,329
95365,507,617,302
95381,510,519,233
95397,511,475,316
95412,471,455,354
95428,503,527,250
95444,508,345,303
95460,509,283,354
95476,509,230,279
95491,508,564,231
95507,511,274,359
95523,512,351,267
95539,512,554,236
95555,513,537,324
95571,512,630,241
95586,495,345,273
95602,506,328,265
95618,511,583,235
95634,510,385,201
95650,497,549,235
95665,506,508,246
95681,509,558,236
95697,510,462,249
95713,512,376,309
95729,506,562,276
95745,510,492,242
95760,505,610,368
95776,510,249,348
95792,512,426,407
95830,513,325,313
95840,513,572,309
95850,512,344,240
95860,511,544,250
95871,511,547,377
95887,512,400,281
95903,511,251,373
95919,512,358,242
95934,512,336,267
95950,512,371,340
96250,512,595,233
96260,511,284,315
96270,512,384,299
96280,511,504,347
96290,512,359,389
96300,512,570,283
96311,503,612,291
96321,510,412,314
96332,509,484,497
96343,510,493,340
96408,511,368,247
96418,506,521,257
96428,511,590,207
96439,505,296,222
96449,497,466,329
96459,488,606,263
96470,453,258,322
96481,495,608,233
96492,509,397,293
96508,509,487,290
96519,510,595,208
96530,511,611,341
96541,503,279,292
96552,509,607,360
96562,502,278,389
96572,509,296,337
96582,502,468,326
96592,504,466,223
96602,483,390,325
96612,508,598,822
96622,509,609,277
96632,510,420,311
96642,509,498,265
96652,510,525,307
96662,511,452,248
96672,486,584,292
96682,505,352,354
96692,509,541,354
96702,505,613,371
96712,507,394,286
96722,483,474,322
96732,503,597,240
96742,509,517,212
96752,496,421,274
96762,509,481,228
96772,503,540,232
96782,509,565,223
96792,499,455,317
96802,508,277,233
96812,502,332,257
96822,509,480,291
96832,509,384,227
96842,487,517,270
96852,503,600,281
96862,509,254,246
96872,511,607,229
96882,515,490,241
96892,500,346,270
96902,507,532,283
96912,544,601,313
96922,462,370,289
96932,503,364,214
96947,504,542,313
96963,509,441,258
96979,510,433,219
96994,506,548,221
97010,464,575,266
97026,507,194,228
97042,511,484,253
97058,510,612,359
97073,508,572,367
97089,506,574,313
97105,512,552,329
97121,498,590,264
97137,510,439,297
97153,506,406,359
97168,509,299,265
97184,510,365,332
97200,513,450,226
97216,508,379,320
97232,486,560,374
97247,505,605,382
97263,489,485,338
97279,491,597,764
97295,508,436,246
97311,509,272,269
97327,508,416,270
97342,509,497,241
97358,511,488,280
97374,512,596,347
97390,505,264,341
97406,510,462,270
97421,511,266,313
97437,513,577,302
97453,512,455,346
97469,513,588,332
97485,511,272,364
97501,512,574,300
97516,506,507,337
97532,510,597,313
97548,511,514,226
97564,513,553,294
97580,506,568,253
97595,509,509,212
97611,512,620,332
97627,487,355,252
97643,506,582,217
97659,509,427,318
97675,510,336,334
97690,511,446,298
97706,472,491,372
97722,504,617,314
97738,500,601,230
97754,508,398,249
97770,511,529,312
97785,512,466,243
97801,512,341,213
97817,499,231,299
97833,504,502,275
97849,509,595,251
97864,510,596,290
97880,502,405,238
97896,509,543,233
97912,510,460,347
97928,513,569,349
97943,503,609,234
97959,510,458,275
97975,504,405,218
97991,510,629,244
98007,507,570,665
98023,510,331,307
98038,510,405,298
98054,510,474,286
98070,513,589,323
98086,512,544,378
98102,509,271,288
98117,512,605,342
98133,510,601,229
98149,512,281,227
98165,512,479,286
98181,482,583,209
98197,506,510,315
98212,509,517,320
98228,500,347,280
98244,508,590,320
98260,510,596,248
98276,487,542,312
98292,507,540,302
98307,500,540,324
98323,507,367,360
98339,510,312,254
98355,488,520,267
98371,505,526,215
98386,509,590,271
98402,511,501,559
98418,501,583,629
98434,494,517,262
98450,507,593,305
98466,508,496,310
98481,510,609,272
98497,465,300,358
98513,505,597,212
98529,421,573,201
98545,500,592,173
98561,509,335,179
98576,475,544,230
98592,455,384,262
98608,500,518,288
98624,509,602,231
98640,511,402,305
98655,510,608,233
98671,508,371,204
98687,498,598,271
98703,504,505,238
98719,508,595,277
98735,467,518,198
98750,493,604,280
98766,508,267,241
98782,510,166,203
98798,509,513,297
98814,511,490,335
98829,512,405,278
98845,511,573,307
98861,511,598,217
98877,498,608,213
98893,510,481,269
98909,510,381,198
98924,512,408,275
98940,513,473,218
98956,507,562,239
98972,511,496,281
98988,485,441,214
99003,502,558,286
99019,499,341,275
99035,509,400,212
99051,501,462,217
99067,635,361,329
99083,451,518,245
99098,503,446,228
99114,503,570,210
99130,509,264,307
99146,510,380,266
99162,509,260,216
99177,460,345,306
99193,481,426,274
99209,508,488,252
99225,511,429,331
99241,510,603,182
99257,493,385,238
99272,508,561,235
99288,508,456,218
99304,510,434,257
99320,495,284,224
99336,506,308,193
99351,509,520,197
99367,504,230,291
99383,508,473,245
99399,503,472,164
99415,510,565,273
99431,510,269,181
99446,512,413,217
99462,512,349,423
99478,512,600,212
99494,511,512,199
99510,513,591,257
99525,512,281,250
99541,511,571,427
99557,511,580,210
99573,486,351,168
99658,502,567,260
99668,509,557,210
99678,495,498,201
99688,507,607,214
99698,471,618,267
99708,495,598,202
99718,510,374,177
99728,507,221,182
99738,510,553,211
99748,510,469,157
99758,464,568,178
99768,502,426,223
99779,507,367,187
99794,509,461,187
99810,511,378,259
99826,502,608,274
99842,509,468,189
99858,473,432,233
99873,504,280,211
99889,486,574,172
99905,508,593,270
99921,491,617,290
99937,508,616,190
99953,492,400,275
99968,499,557,318
99984,508,594,311
100000,498,330,288
100016,508,448,211
100032,493,484,162
100047,489,362,252
100063,503,526,296
100079,510,216,173
100095,509,623,305
100111,500,466,342
100127,431,513,234
100181,500,534,273
100191,504,617,364
100202,501,491,333
100213,505,261,311
100224,510,345,362
100235,509,402,383
100245,509,415,299
100255,463,442,334
100269,504,554,250
100285,510,325,314
100301,507,556,227
100316,509,440,216
100332,512,365,213
100348,476,599,337
100364,472,594,347
100380,500,614,298
100396,510,452,336
100411,524,454,250
100427,508,378,267
100443,509,447,274
100459,521,571,232
100475,500,600,239
100490,506,350,300
100506,506,334,334
100673,512,359,357
100684,510,618,369
100694,515,586,272
100704,499,469,379
100714,510,593,239
100724,509,470,324
100734,496,426,344
100744,506,304,346
100754,472,262,244
100764,474,478,309
100774,514,602,237
100784,504,461,294
100794,514,444,246
100804,508,588,305
100814,508,282,355
100824,510,379,288
100834,496,605,313
100864,512,540,246
100874,499,251,320
100884,513,421,226
100894,514,482,300
100904,496,577,322
100914,503,444,361
100924,509,498,345
100934,510,609,637
100944,516,599,329
100954,510,587,276
100964,512,307,283
100974,510,601,181
100984,513,278,274
100997,511,594,231
101013,512,548,316
101028,509,278,276
101044,510,254,411
101060,511,591,276
101076,481,521,299
101092,505,591,526
101107,508,470,227
101123,506,577,207
101139,527,540,227
101155,497,526,318
101171,496,547,251
101187,506,339,316
101202,511,577,282
101218,510,554,303
101234,463,582,858
101250,500,511,286
101266,511,471,195
101282,509,568,276
101297,423,590,180
101313,494,466,292
101329,508,371,224
101345,511,485,215
101361,509,484,208
101376,510,564,205
101392,511,279,162
101408,437,363,488
101424,501,581,207
101440,504,541,463
101456,502,518,344
101471,511,498,582
101487,504,541,221
101503,495,500,750
101519,622,251,330
101535,446,432,199
101550,503,590,212
101566,510,588,187
101582,512,531,283
101598,510,533,318
101614,504,593,325
101630,493,540,238
101645,509,518,255
101661,507,327,288
101677,457,559,278
101693,471,448,289
101709,498,506,252
101724,510,510,353
101740,508,587,239
101756,509,430,232
101772,510,440,287
101788,504,546,264
101804,506,268,259
101819,507,577,266
101835,510,559,208
101851,512,577,294
101867,477,511,289
101883,508,495,248
101898,507,564,257
101914,501,577,240
101930,450,579,236
101946,504,451,385
101962,512,549,359
101978,508,529,272
101993,509,309,343
102009,509,601,350
102025,510,528,289
102041,513,514,258
102057,513,514,336
102072,479,301,243
102088,477,539,350
102104,506,476,257
102120,509,577,254
102136,509,566,300
102152,488,461,285
102167,504,554,273
102183,509,521,346
102199,512,355,265
102215,512,491,280
102231,512,401,393
102246,511,416,448
102262,513,562,289
102278,512,330,276
102294,512,341,257
102310,509,394,296
102325,492,569,248
102341,508,424,629
102357,510,506,217
102373,510,509,599
102389,512,583,239
102405,512,514,337
102420,512,555,289
102436,495,576,231
102452,508,499,329
102468,510,251,275
102484,511,581,344
102500,512,576,292
102515,512,388,356
102531,511,370,466
102547,512,527,332
102563,507,587,280
102579,509,429,252
102594,458,387,324
102610,503,596,267
102626,510,337,434
102642,503,409,336
102658,507,576,421
102674,506,407,338
102689,510,386,315
102705,510,585,233
102721,510,522,317
102737,510,493,235
102753,511,474,324
102768,498,524,300
102784,508,534,279
102800,509,415,311
102816,476,597,349
102832,505,403,309
102848,505,600,351
102863,508,592,428
102879,449,572,320
102895,500,310,388
102911,509,578,265
102927,509,407,413
102943,510,560,288
102958,511,334,329
103006,514,554,267
103016,511,465,390
103026,509,580,214
103036,511,491,355
103046,439,502,304
103056,501,564,387
103069,510,525,374
103085,508,420,386
103101,512,508,276
103117,457,212,279
103132,503,581,294
103148,510,524,328
103164,447,576,193
103180,476,337,288
103196,506,565,717
103211,507,347,172
103227,748,398,212
103243,449,300,176
103259,503,302,174
103275,509,493,188
103291,496,594,181
103306,509,454,199
103322,481,574,526
103338,509,398,195
103354,513,563,227
103370,506,472,170
103386,510,580,185
103401,499,554,157
103417,503,587,214
103433,450,594,185
103449,502,276,153
103465,495,566,189
103480,507,446,198
103496,509,258,154
103512,471,408,204
103598,497,280,161
103608,463,462,176
103618,489,511,199
103628,496,371,220
103691,467,526,180
103701,507,514,165
103711,465,479,199
103721,454,391,190
103733,499,547,142
103743,451,422,169
103753,495,448,178
103763,489,347,181
103773,503,418,666
103783,506,328,252
103793,511,556,275
103803,509,409,231
103813,497,292,399
103823,507,549,287
103833,510,315,347
103843,510,451,390
103853,512,522,320
103863,512,557,248
103876,511,527,400
103892,513,501,305
103908,512,606,382
103923,494,385,437
103939,506,499,344
103955,507,565,359
103971,509,584,431
103987,510,486,373
104002,512,542,410
104018,497,618,329
104034,508,599,274
104050,510,504,358
104066,475,549,306
104082,503,611,351
104097,503,594,365
104113,507,581,402
104129,503,532,383
104145,506,580,297
104161,508,457,285
104176,512,422,263
104192,510,531,352
104208,512,465,243
104224,513,539,324
104240,512,557,272
104256,512,353,277
104271,481,562,277
104287,474,488,278
104303,504,509,345
104319,510,436,266
104335,492,563,276
104350,509,433,325
104366,509,478,270
104382,495,474,304
104398,508,571,359
104414,430,477,268
104430,497,397,267
104445,510,589,244
104461,492,598,264
104477,460,599,272
104493,500,450,317
104509,509,220,240
104525,511,592,312
104540,508,361,384
104556,500,587,335
104572,503,359,328
104588,500,514,256
104604,495,361,307
104619,687,499,338
104635,488,344,377
104651,508,602,288
104667,509,413,297
104683,505,558,274
104699,509,439,253
104714,511,260,243
104730,508,315,267
104746,510,538,287
104762,512,550,216
104778,457,413,258
104793,498,388,236
104809,498,421,177
104825,509,554,196
104841,495,531,189
104857,505,593,223
104873,510,580,222
104888,511,597,225
104904,508,606,223
104920,510,573,226
104936,507,596,305
104952,507,539,285
104967,509,611,252
104983,511,441,321
104999,511,565,303
105015,507,460,281
105031,498,588,354
105047,502,311,280
105062,508,535,361
105078,510,352,390
105094,510,619,354
105110,511,465,432
105126,512,567,408
105141,492,528,355
105157,508,598,886
105173,510,325,343
105189,495,288,327
105205,506,413,432
105221,501,652,404
105236,509,549,468
105252,510,293,438
105268,511,606,495
105284,512,548,379
105300,512,515,444
105315,511,625,416
105331,512,477,438
105347,512,430,444
105363,512,391,368
105379,510,544,425
105395,510,600,356
105410,511,296,461
105426,511,298,345
105442,507,425,516
105458,510,464,328
105474,505,527,458
105489,463,402,333
105505,505,321,339
105521,463,403,288
105537,506,500,312
105553,513,482,272
105569,503,209,370
105584,508,312,460
105600,509,613,403
105616,510,243,452
105632,511,601,457
105648,497,490,461
105663,510,537,334
105679,510,280,340
105695,508,614,362
105711,511,457,323
105727,510,354,420
105743,512,610,428
105758,513,618,406
105774,511,597,418
105790,512,643,319
105842,513,612,329
105854,511,585,276
105864,512,558,406
105874,513,607,401
105884,501,243,416
105894,508,280,405
105904,511,599,309
105917,511,512,333
105933,511,616,437
105948,511,516,364
105990,513,278,388
106000,512,286,324
106010,503,387,352
106020,508,450,265
106061,485,492,254
106071,503,370,209
106082,508,342,305
106093,509,441,249
106104,510,354,242
106115,503,605,229
106126,507,461,232
106138,477,232,210
106154,504,328,250
106170,483,501,245
106185,501,571,288
106201,510,532,282
106217,509,515,242
106233,508,512,318
106249,510,335,272
106265,504,320,312
106280,510,451,300
106296,511,605,398
106312,504,587,288
106328,493,597,341
106344,500,432,374
106359,508,545,297
106375,501,564,377
106391,507,285,612
106407,475,493,375
106423,486,331,323
106439,508,365,438
106454,510,216,361
106470,507,190,339
106486,510,588,328
106502,510,633,369
106518,510,378,346
106533,512,321,369
106549,512,314,455
106565,510,587,346
106581,511,634,382
106597,511,620,345
106613,513,601,351
106628,512,406,468
106644,506,542,347
106660,509,267,482
106676,506,581,344
106692,511,277,466
106708,511,563,328
106723,507,595,485
106739,510,433,346
106755,512,620,406
106771,511,580,444
106787,512,512,365
106802,511,227,383
106818,493,491,339
106834,506,430,397
106850,474,384,301
106866,506,387,316
106882,501,617,283
106897,508,398,333
106913,510,307,304
106929,510,580,377
106945,512,566,362
106961,512,272,335
106976,512,614,382
106992,505,314,355
107008,510,630,278
107024,512,611,408
107040,511,501,321
107056,506,244,336
107071,510,596,328
107087,500,370,326
107103,509,475,421
107119,511,505,387
107135,491,624,480
107150,507,414,372
107166,511,419,473
107182,511,538,321
107198,504,323,369
107214,511,281,298
107230,511,635,325
107245,511,607,418
107261,512,496,391
107277,512,333,455
107293,489,622,320
107309,507,556,402
107325,510,603,341
107340,507,472,394
107356,510,605,291
107372,502,584,361
107388,502,637,302
107404,488,465,297
107419,506,484,421
107435,490,407,314
107451,507,348,298
107467,505,601,383
107483,502,487,369
107499,509,577,391
107514,510,556,352
107530,511,562,402
107546,502,508,331
107562,509,347,302
107578,492,613,411
107594,501,410,326
107609,509,505,417
107625,511,435,304
107641,511,590,306
107657,490,456,237
107673,507,447,354
107688,510,547,346
107704,512,621,338
107720,512,428,340
107736,494,593,311
107752,507,582,351
107767,510,589,321
107783,505,606,403
107799,510,593,333
107815,491,536,303
107831,507,621,289
107847,477,463,351
107862,506,630,450
107878,509,426,348
107894,510,637,409
107910,507,441,309
107926,510,560,316
107941,502,301,346
107957,509,461,450
107973,487,363,347
107989,497,597,450
108005,508,505,359
108021,509,629,439
108036,510,400,317
108052,511,524,442
108068,511,292,345
108084,505,466,392
108100,503,446,345
108115,501,310,395
108131,507,307,358
108147,509,314,460
108163,511,582,388
108179,507,520,478
108195,510,479,381
108211,509,485,387
108226,512,447,313
108264,501,318,377
108274,508,333,307
108284,511,299,393
108294,507,594,404
108305,511,526,445
108321,512,536,323
108337,499,589,328
108353,471,432,282
108379,505,293,457
108389,509,356,270
108400,510,617,325
108416,510,437,366
108432,512,221,258
108448,510,626,280
108463,511,517,230
108494,491,453,278
108504,507,325,309
108515,510,570,319
108527,511,439,318
108543,501,588,271
108558,508,513,275
108574,488,606,279
108590,506,510,320
108606,509,630,369
108622,511,614,401
108637,507,451,331
108653,512,391,325
108669,512,250,267
108685,512,455,287
108701,511,551,257
108717,512,339,306
108732,513,372,283
108748,506,318,335
108764,467,318,289
108780,495,624,308
108796,496,483,290
108811,508,486,354
108827,509,378,297
108843,508,369,282
108859,511,335,285
108875,509,611,239
108891,481,208,262
108906,505,499,266
108922,509,420,272
108938,488,508,253
108954,503,372,248
108970,509,617,251
108986,503,624,227
109001,509,208,228
109017,510,387,198
109033,505,613,255
109049,500,156,209
109065,501,600,238
109080,505,274,240
109096,506,474,234
109112,487,516,199
109128,508,438,213
109144,462,516,249
109160,502,469,489
109175,510,361,213
109191,509,489,188
109207,503,405,221
109223,509,424,241
109239,495,533,192
109254,508,464,214
109270,510,457,214
109286,509,402,202
109302,511,512,215
109318,511,438,290
109334,512,545,543
109349,510,600,207
109365,512,293,206
109381,512,569,257
109397,507,584,176
109413,501,208,211
109428,480,464,186
109444,504,371,218
109460,508,581,565
109476,495,532,200
109492,497,321,218
109508,504,522,514
109523,493,587,169
109539,483,414,201
109555,508,549,222
109571,509,385,207
109587,510,339,238
109602,469,438,200
109618,506,611,214
109634,504,297,195
109650,510,607,251
109666,492,281,282
109682,508,436,338
109697,502,487,299
109713,502,423,354
109729,508,441,314
109745,510,394,336
109761,511,617,264
109776,511,393,318
109792,513,640,272
109808,512,581,332
109824,512,603,247
109840,512,480,262
109856,511,550,356
109871,511,608,291
109887,511,288,356
109903,512,585,286
109919,503,367,356
109935,509,264,308
109950,510,424,365
109966,512,344,282
109982,511,253,376
109998,511,605,271
110014,512,474,240
110030,513,383,367
110045,510,620,387
110061,511,483,407
110077,512,496,337
110093,484,638,421
110109,502,201,322
110125,505,443,361
110140,508,493,323
110156,511,459,415
110172,511,548,377
110188,511,528,392
110204,513,317,403
110219,512,471,352
110235,498,516,361
110251,509,610,303
110267,511,349,359
110283,497,574,325
110299,508,409,285
110314,471,494,297
110330,506,609,409
110346,509,372,319
110362,504,211,350
110378,508,417,306
110393,498,381,336
110409,508,328,285
110425,510,313,322
110441,512,378,317
110457,511,424,347
110473,513,611,302
110488,512,386,291
110504,512,302,310
110520,512,249,298
110536,512,428,378
110552,512,479,272
110568,512,361,307
110583,512,523,260
110599,495,555,327
110615,508,606,265
110631,510,401,245
110647,495,254,256
110662,501,387,266
110678,508,614,253
110694,510,554,365
110730,499,245,266
110740,507,591,266
110750,510,611,322
110760,507,605,407
110773,504,558,293
110789,482,410,304
110805,507,526,282
110821,509,374,337
110837,510,612,277
110866,501,582,368
110876,509,365,372
110886,507,283,299
110900,510,318,374
110954,504,304,305
110964,509,594,377
110974,509,522,332
110984,512,573,256
110995,512,365,260
111006,485,367,286
111016,506,546,372
111026,509,470,306
111042,510,338,365
111058,511,380,275
111074,512,545,276
111090,511,516,238
111105,513,512,284
111121,511,513,310
111137,511,512,251
111153,511,511,301
111169,511,230,250
111184,513,486,259
111200,511,318,242
111216,488,558,230
111232,506,594,242
111248,509,327,193
111264,498,304,293
111279,502,906,240
111295,510,658,249
111311,510,678,228
111327,512,683,250
111343,511,546,281
111358,512,279,292
111374,511,312,201
111390,512,302,253
111406,512,281,234
111422,511,507,252
111438,512,360,203
111453,512,253,244
111469,427,232,377
111485,497,531,276
111501,491,743,255
111517,509,494,286
111533,509,889,257
111548,510,357,280
111564,510,242,303
111580,511,196,263
111596,511,265,292
111612,513,146,229
111627,512,627,274
111643,501,215,247
111659,504,778,226
111675,509,451,288
111691,492,403,257
111707,498,115,270
111722,507,534,356
111738,509,601,278
111754,511,603,347
111770,511,368,362
111786,511,552,298
111801,513,517,373
111817,513,512,303
111833,512,512,306
111849,456,513,223
111865,471,512,218
111881,411,511,229
111896,499,530,247
111910,510,6,178
111928,512,379,260
111944,510,495,207
111960,490,510,231
111975,481,508,227
111992,509,1017,265
112007,508,373,203
112023,510,545,260
112039,511,517,245
112054,427,514,220
112070,500,500,264
112085,510,40,234
112102,509,327,277
112118,548,995,443
112134,462,426,220
112149,440,501,732
112165,460,510,196
112181,505,533,502
112197,493,523,227
112213,505,491,191
112228,428,510,239
112244,488,657,228
112260,508,503,231
112276,512,508,466
112292,488,512,228
112308,507,508,285
112323,501,510,317
112339,507,510,745
112355,510,512,224
112371,429,512,184
112387,499,512,271
112402,440,512,249
112418,423,513,737
112434,501,511,212
112450,508,512,247
112466,429,511,239
112482,452,512,199
112497,505,511,720
112513,511,512,247
112529,483,512,412
112545,507,512,375
112562,512,1019,224
112577,495,386,192
112592,508,495,193
112608,509,509,219
112624,511,511,222
112640,427,513,194
112656,451,512,201
112671,461,509,176
112687,505,510,178
112703,511,511,158
112719,403,512,185
112735,495,513,202
112751,510,512,189
112766,439,511,210
112782,503,512,208
112798,511,512,204
112815,458,1018,208
112830,476,472,218
112845,482,695,195
112861,505,528,199
112877,511,462,197
112893,406,505,197
112909,498,511,178
112925,418,512,195
112940,379,512,171
112956,453,509,175
112972,487,510,181
112988,508,511,157
113004,404,611,154
113019,439,663,152
113035,400,501,176
113051,399,415,162
113067,496,500,231
113083,432,349,177
113099,462,402,251
113114,506,498,140
113130,497,504,370
113160,444,612,233
113170,481,562,146
113181,509,508,251
113193,470,385,154
113209,709,496,411
113225,469,510,177
113241,506,513,173
113257,450,511,160
113274,417,510,199
113288,456,511,273
113316,505,510,169
113327,511,512,308
113338,514,1017,537
113380,401,470,157
113390,524,425,239
113402,433,417,194
113412,483,458,579
113423,496,501,174
113437,442,492,137
113448,458,411,152
113462,431,500,554
113478,423,510,491
113494,396,513,153
113510,532,511,197
113526,417,509,163
113542,422,510,148
113557,422,511,520
113573,381,513,305
113589,451,512,146
113605,489,512,196
113621,421,513,167
113636,401,513,161
113652,369,513,146
113668,378,513,155
113684,381,512,176
113700,369,513,146
113716,340,513,156
113731,337,967,153
113747,329,335,151
113763,336,590,154
113779,330,608,153
113795,327,462,155
113810,320,461,153
113826,333,505,162
113842,328,511,142
113858,338,537,167
113874,333,580,167
113890,332,594,160
113905,328,561,157
113921,321,452,141
113937,326,374,173
113953,331,486,175
113969,326,508,156
113984,328,512,171
114000,327,511,170
114016,331,512,186
114032,318,509,145
114048,337,511,179
114064,342,510,173
114079,334,513,180
114095,329,512,167
114111,318,777,663
114127,323,420,167
114143,411,500,180
114158,326,511,669
114174,320,512,125
114190,471,513,188
114206,324,513,133
114222,320,509,295
114238,365,511,168
114253,328,510,147
114269,333,511,276
114285,318,512,145
114301,390,511,157
114317,410,512,164
114333,335,512,161
114348,310,513,156
114365,327,1018,173
114380,439,530,290
114396,338,327,593
114412,321,416,132
114427,325,499,140
114443,323,511,180
114459,333,512,229
114475,313,511,144
114491,321,510,188
114507,330,510,159
114522,326,509,151
114538,408,511,139
114554,319,511,185
114570,326,511,169
114586,332,513,166
114601,320,446,146
114617,318,532,162
114633,321,496,172
114649,325,426,165
114665,313,635,138
114681,332,607,159
114696,328,444,172
114712,320,340,165
114728,326,364,160
114744,327,461,188
114760,332,438,162
114775,329,624,136
114791,326,400,174
114807,332,435,166
114823,330,524,166
114839,334,595,139
114855,344,559,138
114870,347,570,130
114886,345,606,166
114902,345,325,160
114918,343,285,166
114934,344,784,153
114949,344,125,144
114965,353,676,161
114981,348,460,136
114997,351,602,162
115013,339,576,128
115029,353,725,149
115044,343,589,140
115060,336,563,158
115076,515,519,421
115092,393,400,141
115108,335,179,143
115123,336,372,133
115139,436,424,247
115155,353,496,166
115171,369,519,172
115187,357,495,609
115203,328,510,144
115218,578,512,471
115234,337,578,140
115250,351,629,221
115266,322,597,556
115282,439,538,201
115297,412,349,221
115313,338,319,151
115329,522,487,346
115345,322,509,471
115361,325,512,157
115377,603,512,298
115392,418,512,261
115408,313,510,333
115424,461,511,561
115440,342,510,170
115456,493,512,257
115471,546,511,156
115487,408,517,632
115503,322,363,576
115519,312,390,443
115535,447,496,542
115551,353,510,313
115566,416,651,177
115582,325,715,156
115598,319,648,163
115650,320,306,143
115660,318,346,160
115670,321,492,157
115680,324,227,177
115707,319,788,154
115717,324,554,168
115727,326,414,154
115737,319,603,139
115774,340,525,128
115784,324,521,137
115794,327,513,150
115804,322,512,139
115814,329,273,152
115824,323,433,147
115835,319,432,154
115851,313,500,146
115867,336,292,165
115883,321,712,153
115899,322,549,135
115914,317,251,156
115930,322,160,148
115946,330,481,173
115962,318,717,155
115978,325,524,146
115993,319,171,171
116009,323,500,142
116025,326,664,153
116041,318,245,143
116057,336,743,163
116073,345,320,192
116088,372,361,183
116104,313,377,354
116120,387,451,250
116136,610,499,281
116152,345,510,136
116167,463,511,262
116183,310,817,272
116199,378,536,166
116215,535,324,451
116231,416,496,308
116247,595,458,517
116262,500,504,190
116278,351,512,169
116294,318,513,497
116310,333,512,245
116326,365,509,392
116341,462,510,262
116357,311,512,138
116373,312,512,649
116389,317,512,143
116405,423,512,173
116421,314,512,522
116436,312,512,139
116452,417,513,662
116468,358,513,388
116484,357,513,141
116500,372,914,685
116515,334,700,201
116531,326,370,294
116547,514,401,385
116563,311,381,136
116579,306,496,121
116595,320,509,158
116610,324,513,151
116626,317,512,171
116642,325,512,162
116658,314,512,144
116675,323,1019,333
116690,322,618,138
116705,322,519,153
116721,320,261,180
116737,329,320,170
116753,327,580,159
116769,320,385,152
116784,318,247,157
116801,322,1008,181
116816,326,574,141
116832,328,520,143
116848,328,514,175
116864,320,512,150
116879,327,210,167
116895,328,295,188
116911,324,698,160
116927,326,279,173
116943,313,404,172
116958,318,418,152
116974,317,618,144
116990,319,615,170
117006,322,549,183
117022,317,432,171
117038,322,777,164
117053,320,522,167
117068,573,73,326
117085,327,504,196
117101,369,492,307
117117,411,510,379
117132,323,511,437
117148,474,513,173
117164,305,512,160
117180,322,513,142
117196,317,510,120
117212,308,510,179
117227,324,512,143
117243,318,511,501
117259,308,445,122
117275,604,528,613
117291,353,707,142
117306,320,362,166
117322,397,364,438
117338,318,417,227
117354,322,544,176
117370,444,599,677
117386,313,572,149
117401,388,545,128
117417,322,720,148
117433,325,539,187
117449,376,463,173
117465,324,202,551
117480,375,423,329
117496,323,334,129
117512,403,451,313
117528,448,485,568
117544,321,508,143
117560,324,510,164
117575,320,512,142
117591,320,512,152
117607,324,512,161
117623,316,509,177
117639,321,510,148
117654,321,511,149
117670,325,513,161
117686,326,513,177
117702,313,310,148
117718,325,484,174
117734,324,509,186
117749,316,512,164
117765,320,513,154
117781,318,513,168
117797,322,510,185
117813,326,510,185
117828,312,511,158
117844,318,511,158
117860,326,511,158
117876,317,511,177
117892,326,553,168
117908,323,536,168
117923,315,570,157
117939,318,671,153
117955,325,498,168
117979,322,466,150
117989,311,545,161
118002,319,362,156
118018,320,473,186
118034,318,506,180
118050,322,429,149
118066,316,653,161
118114,336,158,503
118125,582,459,418
118135,320,561,156
118146,414,525,164
118157,379,438,616
118167,298,503,134
118177,522,513,601
118192,515,512,143
118208,341,511,151
118224,598,510,652
118240,318,509,129
118295,439,509,282
118305,315,512,238
118315,520,512,150
118326,597,512,147
118337,312,512,125
118348,313,512,675
118359,307,512,156
118370,315,513,129
118382,325,609,171
118398,315,372,160
118414,321,476,173
118430,536,462,420
118445,352,481,144
118461,459,508,315
118477,310,461,138
118493,322,505,146
118509,317,511,158
118525,372,511,345
118540,313,511,232
118556,450,510,234
118572,309,510,143
118588,314,510,179
118604,320,511,167
118619,319,512,146
118635,312,511,170
118651,316,512,154
118667,321,511,157
118683,308,512,147
118699,320,512,148
118714,328,511,177
118730,315,513,150
118746,316,512,154
118762,313,513,169
118778,313,512,160
118793,318,513,163
118809,311,512,158
118825,308,511,163
118841,319,511,149
118857,320,966,183
118873,322,378,172
118888,320,495,168
118904,315,509,176
118920,327,511,152
118936,312,611,149
118952,313,661,161
118967,316,525,153
118983,312,596,147
118999,310,732,149
119015,316,504,149
119031,313,791,155
119047,316,487,154
119063,324,426,246
119078,321,517,141
119094,316,416,263
119110,316,494,375
119126,314,509,150
119141,319,512,163
119157,312,513,142
119173,312,518,592
119189,307,522,207
119205,318,449,143
119221,320,645,228
119236,325,534,163
119252,313,445,143
119268,308,467,135
119284,307,426,140
119300,315,430,659
119316,310,568,137
119331,344,556,133
119347,316,629,155
119363,301,668,139
119378,312,10,142
119395,335,754,157
119410,576,633,390
119426,311,717,131
119442,532,489,307
119458,309,690,183
119474,409,260,195
119489,392,442,430
119505,408,167,151
119521,308,581,164
119537,398,495,191
119553,352,754,128
119569,336,548,135
119584,320,517,144
119600,327,456,151
119616,317,498,158
119632,306,385,203
119648,310,312,154
119663,310,430,171
119679,318,502,152
119695,307,518,151
119711,311,474,168
119727,315,480,162
119743,313,474,169
119758,310,556,171
119774,317,408,172
119790,318,432,149
119806,314,503,148
119822,317,510,186
119837,318,511,156
119853,313,509,169
119869,322,511,151
119885,312,510,157
119901,315,510,149
119917,318,307,161
119932,316,412,153
119948,314,597,138
119964,310,346,138
119980,329,315,145
119996,302,349,161
120012,319,520,164
120027,318,566,139
120043,309,448,155
120059,323,557,157
120075,383,343,345
120091,446,506,576
120106,327,501,452
120122,375,570,305
120138,301,463,395
120154,577,461,487
120170,333,489,642
120186,335,509,413
120201,305,513,145
120217,312,512,197
120233,315,510,205
120249,302,510,144
120265,386,510,514
120280,298,513,673
120296,426,474,224
120312,309,589,638
120328,303,815,148
120344,320,551,166
120360,345,528,541
120375,310,198,224
120391,318,471,271
120407,295,504,185
120423,308,511,674
120439,326,512,650
120454,370,512,484
120470,474,512,372
120486,562,512,579
120557,494,509,407
120567,309,510,646
120577,588,511,291
120587,304,512,234
120597,305,511,131
120607,574,512,302
120617,314,513,130
120627,319,512,161
120637,309,513,142
120647,318,511,144
120660,312,511,174
120676,305,512,156
120692,312,513,145
120708,307,512,145
120721,311,5,133
120739,350,599,246
120755,316,523,154
120771,319,513,163
120787,315,512,162
120802,322,395,149
120818,311,304,147
120834,318,764,170
120850,312,602,141
120866,316,592,154
120881,310,581,150
120897,308,530,149
120913,311,522,153
120929,307,519,159
120945,305,514,163
120961,311,524,171
120975,379,98,136
120992,323,564,188
121008,319,554,144
121024,312,504,151
121040,313,756,158
121055,562,712,385
121071,307,348,153
121087,305,492,137
121103,321,509,297
121119,318,512,152
121135,518,512,268
121150,454,328,230
121166,388,705,264
121182,413,388,483
121198,509,410,661
121212,302,6,151
121229,429,243,294
121245,445,271,495
121261,311,330,117
121277,378,605,637
121293,310,607,158
121308,411,370,160
121324,383,134,312
121340,298,208,146
121356,308,547,157
121372,301,252,151
121388,330,423,261
121403,298,487,154
121419,366,546,149
121435,301,550,153
121451,313,512,150
121467,337,220,192
121482,314,373,163
121498,343,190,154
121514,315,557,157
121530,306,518,119
121546,302,544,166
121562,311,419,130
121577,301,181,161
121593,315,320,141
121609,306,346,153
121625,353,583,144
121641,305,368,152
121656,306,408,147
121710,316,401,144
121720,301,460,149
121730,417,590,153
121740,307,594,182
121750,310,353,129
121760,307,281,143
121770,293,608,128
121783,310,587,164
121799,306,598,146
121815,306,365,152
121830,306,881,166
121846,299,545,176
121943,305,549,184
121953,313,517,187
121963,320,513,161
121973,315,512,140
122011,302,513,177
122021,311,511,157
122031,303,511,173
122041,309,512,156
122051,304,512,112
122061,300,512,155
122071,308,512,182
122082,309,512,147
122093,315,512,164
122103,310,512,126
122113,314,512,146
122124,320,512,388
122134,317,512,153
122144,316,512,175
122155,318,512,161
122165,305,512,173
122178,312,512,129
122194,309,511,174
122210,322,512,150
122226,313,513,165
122242,316,512,158
122258,326,512,490
122273,310,513,628
122289,320,513,133
122305,327,512,141
122321,315,511,142
122337,319,512,192
122352,331,512,158
122368,319,512,131
122384,317,512,208
122400,311,512,125
122416,319,512,149
122432,323,512,170
122447,319,512,375
122463,318,511,154
122479,345,511,219
122495,364,512,283
122511,315,512,115
122527,314,511,153
122542,312,512,156
122558,402,512,424
122574,314,512,168
122590,318,513,203
122606,312,512,184
122621,312,512,176
122637,306,512,180
122653,313,512,163
122669,307,512,174
122685,318,512,158
122701,317,274,158
122716,320,552,162
122730,552,6,156
122748,359,976,252
122764,317,575,178
122780,319,528,160
122795,319,542,197
122811,320,466,158
122827,312,337,185
122843,315,443,167
122859,319,533,171
122874,310,576,168
122889,308,16,189
122906,339,495,205
122922,319,363,184
122938,332,551,191
122954,320,418,162
122969,317,530,156
122985,315,514,156
123001,315,512,149
123017,320,512,157
123033,321,511,161
123048,323,512,159
123064,478,512,190
123080,321,512,180
123096,327,512,167
123112,375,512,173
123128,312,512,151
123143,600,512,280
123159,387,512,631
123175,319,512,623
123191,323,512,160
123207,330,511,185
123222,355,512,462
123238,320,512,142
123254,393,513,173
123270,423,511,129
123286,326,512,168
123302,327,513,196
123317,312,512,159
123333,322,512,332
123349,318,512,169
123365,328,512,148
123381,329,512,172
123396,467,512,438
123412,323,512,148
123428,326,512,171
123444,338,512,143
123460,317,512,165
123476,347,512,150
123491,321,512,160
123507,355,512,253
123523,333,512,137
123539,319,512,148
123555,335,512,168
123570,316,512,153
123586,327,513,178
123602,332,512,159
123618,332,513,141
123634,339,512,182
123650,338,512,187
123665,342,512,168
123681,334,512,176
123697,337,512,159
123713,336,512,185
123729,335,512,160
123744,339,512,187
123760,345,512,172
123776,343,513,162
123792,336,512,194
123808,345,512,179
123824,341,512,199
123839,346,512,200
123855,336,512,176
123871,334,512,156
123887,342,512,165
123903,339,512,180
123918,342,512,179
123934,339,512,169
123950,333,512,161
123966,342,512,175
123982,337,513,174
123998,329,512,174
124013,328,512,183
124029,321,512,175
124045,319,512,152
124061,329,512,175
124077,435,513,259
124092,313,385,283
124108,495,515,266
124124,399,503,656
124222,345,384,181
124232,324,551,385
124242,328,348,182
124252,399,377,649
124262,317,534,177
124272,314,559,213
124282,324,522,461
124293,316,564,512
124304,503,554,498
124314,360,494,262
124325,324,558,141
124335,318,453,525
124345,304,548,656
124355,508,365,174
124365,309,558,171
124377,324,471,275
124393,438,361,294
124409,312,472,391
124425,320,431,141
124440,311,539,702
124456,543,492,158
124472,295,386,197
124488,307,483,308
124504,299,564,147
124520,315,344,154
124535,432,510,228
124551,321,246,153
124567,305,221,158
124583,311,578,167
124599,317,404,175
124614,321,402,156
124630,320,191,199
124646,326,531,189
124662,326,579,149
124678,331,351,138
124694,318,531,186
124709,324,515,193
124725,346,556,168
124741,314,406,165
124795,311,272,162
124805,323,553,161
124815,310,583,159
124825,319,261,163
124947,318,398,157
124957,321,565,194
124967,312,476,168
124977,311,520,149
124987,317,513,154
124997,312,315,169
125007,315,447,175
125017,315,525,166
125029,312,426,138
125039,326,576,159
125050,506,455,160
125060,322,578,137
125070,315,560,179
125081,312,575,188
125092,319,501,169
125102,531,561,153
125112,324,384,178
125123,314,387,184
125134,329,565,321
125144,319,301,370
125155,326,526,512
125165,310,528,144
125175,321,448,150
125185,349,543,189
125200,530,534,307
125216,359,529,246
125231,313,525,483
125247,316,522,183
125263,322,615,120
125279,313,557,144
125295,407,504,198
125310,321,531,324
125326,399,514,409
125342,385,512,200
125358,312,512,156
125374,316,511,153
125390,327,424,309
125405,445,557,151
125421,315,436,168
125437,317,240,183
125453,329,518,165
125469,347,512,128
125484,509,512,350
125500,321,512,142
125516,362,512,289
125532,502,513,178
125548,324,513,151
125564,301,512,137
125579,318,512,151
125595,310,461,167
125611,325,523,172
125627,329,267,179
125643,323,581,160
125658,320,348,164
125674,320,481,165
125690,318,401,164
125706,328,284,156
125722,326,540,164
125738,332,516,155
125753,318,548,146
125769,331,540,151
125785,326,241,156
125801,326,317,144
125817,328,289,155
125832,325,355,162
125848,318,382,138
125864,328,541,168
125880,324,480,147
125896,334,323,157
125912,316,526,134
125927,326,585,150
125943,324,447,158
125959,337,576,149
125975,331,557,173
125991,324,546,168
126006,328,563,145
126022,328,515,159
126038,548,541,161
126052,319,6,155
126071,348,1019,221
126086,320,390,140
126101,323,483,122
126117,302,525,150
126133,312,186,143
126149,334,471,158
126165,315,676,327
126180,557,533,657
126196,373,515,363
126212,319,513,194
126228,370,512,218
126242,325,6,208
126259,353,536,366
126275,329,356,388
126291,377,544,123
126307,314,515,218
126323,455,384,339
126339,309,524,117
126354,317,513,128
126370,313,518,492
126386,387,356,150
126402,317,533,156
126418,340,299,186
126433,328,538,306
126449,326,536,283
126465,316,451,211
126481,311,535,118
126497,310,471,129
126513,315,542,156
126528,357,545,170
126544,306,406,476
126560,320,560,217
126576,308,531,117
126592,313,556,137
126607,310,537,138
126623,331,553,145
126639,318,483,147
126655,317,570,147
126671,329,549,143
126687,317,569,133
126702,317,538,138
126718,319,534,142
126734,311,520,145
126750,321,529,151
126766,322,517,162
126781,319,500,156
126797,323,518,145
126813,314,526,156
126829,318,252,165
126845,338,522,147
126861,316,294,144
126876,310,485,157
126892,321,509,153
126909,319,1019,166
126924,304,622,142
126940,317,526,150
126956,318,514,138
126971,326,512,144
126987,317,512,127
127003,316,271,138
127019,322,544,160
127035,320,538,149
127050,316,515,144
127066,318,512,130
127082,317,512,118
127098,323,512,291
127114,314,468,122
127130,316,515,128
127145,406,215,171
127161,315,564,254
127177,321,275,129
127193,332,541,112
127209,312,406,147
127224,321,538,163
127240,606,516,363
127256,314,512,677
127272,329,511,133
127288,323,533,135
127304,318,524,617
127335,438,6,305
127345,360,422,273
127355,453,501,534
127367,322,721,125
127383,310,392,137
127398,319,549,574
127414,533,519,397
127510,317,479,161
127520,312,536,140
127530,317,251,306
127540,315,533,143
127550,317,554,160
127560,344,520,152
127570,607,547,557
127580,557,376,119
127590,320,571,137
127642,318,390,140
127652,315,534,160
127662,315,506,151
127672,319,243,145
127682,317,551,130
127692,315,665,140
127702,320,522,138
127712,310,522,169
127722,315,541,159
127732,314,441,142
127742,310,545,164
127752,303,517,139
127762,307,349,146
127778,308,518,155
127794,305,513,169
127810,306,511,146
127825,313,511,127
127841,313,471,152
127857,310,553,130
127873,303,550,146
127889,301,548,130
127905,313,541,155
127920,306,541,143
127936,310,396,144
127952,304,494,134
127968,316,567,148
127984,568,474,129
127999,306,331,140
128015,376,312,179
128031,328,559,147
128047,305,324,152
128063,401,577,150
128079,308,435,144
128094,310,532,156
128110,309,540,153
128126,358,558,700
128142,499,543,687
128158,316,304,108
128174,311,557,123
128189,300,528,341
128205,324,526,129
128221,317,546,151
128237,315,555,138
128253,317,544,141
128268,464,547,122
128284,438,542,126
128300,312,422,147
128316,319,572,135
128332,310,541,110
128348,317,480,153
128363,314,541,251
128379,322,273,122
128395,314,545,117
128411,451,526,165
128427,306,390,130
128442,317,569,451
128458,317,561,110
128474,337,530,149
128489,320,517,86
128506,347,514,324
128522,314,524,108
128537,309,553,144
128553,358,552,130
128569,302,504,138
128585,307,434,115
128601,306,558,147
128616,323,369,158
128632,323,551,144
128648,345,430,134
128664,319,274,133
128680,314,527,141
128696,311,514,132
128711,306,512,148
128727,308,540,144
128743,317,478,152
128759,312,494,156
128775,299,479,127
128790,304,457,138
128806,303,389,131
128822,309,568,140
128838,304,561,168
128854,307,483,139
128870,305,534,164
128885,312,358,139
128901,314,433,161
128917,309,543,131
128933,309,589,144
128949,308,541,146
128964,309,515,141
128980,589,396,160
128996,448,532,134
129012,309,355,144
129028,306,526,150
129044,315,514,168
129059,464,514,662
129075,306,512,508
129091,315,352,447
129107,481,550,305
129123,305,428,149
129139,342,522,169
129154,441,538,256
129170,299,550,341
129186,300,489,110
129202,310,336,156
129218,307,535,138
129233,316,301,144
129249,308,566,155
129265,296,548,102
129281,308,521,166
129297,314,565,143
129313,486,555,133
129328,476,539,128
129344,307,496,139
129360,304,449,141
129376,318,484,142
129392,309,403,124
129407,320,464,127
129423,304,436,156
129439,308,449,145
129455,307,428,148
129471,325,559,144
129487,312,451,137
129502,342,461,174
129518,334,434,305
129534,313,460,124
129550,311,284,151
129566,316,556,121
129581,304,518,138
129597,318,587,140
129613,328,516,154
129629,325,256,128
129645,322,350,159
129661,332,434,159
129676,332,460,159
129692,348,398,171
129708,320,427,144
129724,338,550,160
129740,339,468,155
129755,338,501,141
129771,339,557,139
129787,470,495,129
129803,342,581,138
129819,329,390,138
129835,327,589,140
129850,327,470,141
129866,316,429,113
129882,326,378,126
129898,336,585,118
129914,327,540,107
129929,329,361,130
129952,336,393,165
129962,327,548,151
129977,327,518,131
130082,332,451,131
130093,359,297,109
130103,325,521,113
130113,324,537,109
130124,332,520,111
130134,365,534,132
130144,318,455,111
130155,315,447,108
130166,315,194,132
130176,304,536,118
130186,303,393,124
130196,306,537,136
130207,346,487,535
130217,305,353,177
130228,318,485,127
130239,340,481,116
130250,313,484,578
130262,516,487,151
130276,299,318,99
130293,347,520,154
130309,414,529,214
130325,306,349,107
130341,315,558,110
130357,324,348,102
130372,314,452,117
130388,369,457,140
130403,302,560,87
130420,459,260,307
130436,309,554,279
130570,314,320,107
130580,425,516,121
130590,311,501,125
130600,317,556,109
130610,324,518,111
130620,308,512,130
130630,315,499,121
130640,356,516,117
130651,298,528,118
130661,436,523,603
130672,299,513,87
130682,333,512,177
130692,315,512,161
130702,310,254,139
130712,318,554,146
130722,315,374,174
130732,315,484,95
130742,341,373,171
130752,329,444,119
130762,328,491,119
130772,322,562,137
130784,315,560,110
130799,311,414,119
130815,316,565,124
130831,309,475,131
130847,315,419,131
130863,303,541,123
130878,313,447,135
130894,310,534,123
130910,311,515,159
130926,306,512,148
130942,304,511,177
130958,314,551,123
130973,310,535,108
130989,322,489,112
131005,304,537,117
131021,311,357,157
131037,302,537,129
131052,311,516,128
131068,300,415,161
131084,325,551,129
131100,407,483,133
131116,467,540,383
131132,307,519,135
131147,403,477,370
131163,302,550,125
131179,306,456,148
131194,319,536,94
131211,331,463,169
131226,360,546,175
131242,307,527,209
131258,348,514,133
131273,319,515,97
131290,318,249,171
131305,311,304,710
131321,310,486,173
131337,457,508,337
131353,299,511,133
131369,305,513,674
131385,391,512,543
131400,384,820,165
131416,310,430,151
131432,303,509,154
131448,307,522,142
131464,306,514,130
131479,455,512,172
131495,299,512,118
131511,354,362,428
131527,311,566,533
131543,301,539,133
131559,310,530,288
131574,314,515,112
131590,325,512,125
131606,308,512,114
131622,312,385,118
131638,319,516,139
131654,308,513,158
131669,316,512,158
131685,326,512,146
131701,310,513,134
131717,322,511,131
131733,312,335,135
131748,317,409,119
131764,314,531,117
131780,318,515,112
131794,314,6,117
131812,358,428,218
131827,328,501,159
131843,322,510,156
131860,319,1019,158
131875,330,603,109
131891,321,595,150
131907,322,313,147
131922,316,530,134
131938,314,515,125
131954,311,149,140
131970,324,535,151
131985,310,303,96
132001,328,983,157
132017,317,571,131
132033,310,526,110
132047,299,6,131
132065,338,424,207
132080,552,822,554
132095,298,551,94
132112,318,517,536
132128,304,513,484
132143,302,512,90
132159,482,401,159
132175,369,533,396
132191,303,561,169
132207,355,212,346
132223,396,474,211
132239,297,507,645
132255,302,1018,265
132270,365,582,112
132286,356,498,152
132302,316,529,123
132318,296,546,116
132334,409,536,155
132349,304,532,652
132365,300,515,155
132381,313,488,311
132397,302,536,132
132413,327,533,119
132428,296,544,133
132444,315,508,161
132460,372,541,127
132476,563,438,179
132492,316,517,295
132508,419,512,337
132523,472,409,195
132539,612,495,446
132555,445,528,291
132570,392,20,117
132587,327,399,206
132602,313,497,185
132618,308,509,150
132634,311,512,183
132650,312,513,169
132666,315,513,154
132683,309,1007,166
132697,301,575,150
132713,304,521,169
132729,302,513,169
132745,314,512,151
132761,303,528,145
132776,317,561,179
132792,322,538,150
132832,317,516,141
132842,308,513,136
132852,316,511,133
132862,309,506,133
132872,323,520,152
132887,309,567,156
132903,316,519,138
132919,318,513,162
132935,322,512,167
132950,313,511,144
132984,320,533,156
132994,310,105,164
133004,314,460,148
133014,323,505,173
133065,314,512,163
133076,310,512,166
133087,314,513,128
133098,326,512,143
133112,560,509,595
133123,311,992,150
133134,322,573,105
133144,456,520,385
133156,303,513,120
133172,320,501,170
133187,299,519,86
133203,333,539,126
133219,496,531,144
133235,320,411,140
133251,462,534,700
133264,290,6,96
133282,347,419,226
133298,527,904,446
133314,374,562,142
133330,301,519,276
133346,312,512,592
133362,463,512,261
133377,335,531,273
133393,299,535,100
133409,345,519,615
133425,307,529,124
133439,314,6,121
133456,357,422,228
133472,599,501,157
133488,307,753,146
133504,308,542,146
133520,319,535,123
133535,308,530,387
133551,314,541,339
133567,298,532,119
133583,301,522,165
133599,319,507,145
133615,304,547,152
133630,306,388,158
133646,312,495,159
133662,308,558,142
133678,310,521,138
133694,308,319,170
133709,312,455,165
133725,308,412,174
133741,310,523,186
133757,309,361,171
133773,302,348,155
133789,306,347,164
133804,310,538,182
133820,301,536,181
133836,332,544,183
133852,304,612,153
133868,307,319,139
133883,307,488,170
133899,315,509,147
133915,314,511,149
133932,305,1018,193
133947,309,593,163
133963,299,522,167
133978,299,513,148
133994,312,512,165
134010,302,240,146
134026,312,314,200
134042,307,524,185
134058,319,514,174
134073,459,514,264
134089,311,512,642
134105,296,541,147
134121,309,460,615
134137,454,495,473
134152,372,519,146
134168,300,513,129
134184,327,511,141
134200,294,512,102
134216,306,518,262
134232,309,522,382
134247,480,550,691
134263,614,554,707
134279,302,453,120
134295,306,492,151
134311,494,527,695
134325,338,43,196
134342,333,432,475
134358,317,502,162
134374,306,510,169
134390,318,512,171
134406,333,511,184
134421,295,511,155
134437,292,510,147
134453,307,701,143
134469,299,537,137
134485,348,490,138
134500,318,528,123
134516,418,529,324
134532,298,522,134
134548,309,523,132
134564,301,530,128
134580,307,528,100
134595,307,532,168
134611,306,528,183
134627,303,514,129
134643,292,466,107
134659,306,527,126
134674,306,538,118
134689,308,526,92
134706,327,510,193
134722,490,463,388
134738,305,284,137
134753,308,463,132
134769,299,285,130
134784,315,59,147
134801,324,570,150
134817,360,546,148
134833,309,520,145
134848,304,513,154
134864,307,536,124
134880,302,352,146
134896,308,445,135
134912,297,409,144
134927,308,465,133
134943,299,324,129
134959,394,271,132
134975,300,525,113
134991,303,488,145
135005,298,6,137
135020,333,6,222
135038,351,433,250
135054,307,502,149
135070,299,511,631
135085,522,512,595
135101,462,677,650
135117,297,533,103
135133,416,514,486
135148,297,512,85
135165,316,512,169
135180,554,512,604
135196,479,512,297
135212,301,511,213
135228,294,512,131
135244,558,512,454
135259,299,512,161
135275,477,513,303
135291,284,544,128
135307,305,490,149
135323,357,515,185
135337,322,535,98
135354,354,385,234
135555,288,395,136
135565,305,522,132
135575,316,552,481
135585,312,501,556
135595,291,538,164
135605,376,438,204
135615,310,344,339
135625,311,550,203
135635,359,367,160
135645,308,492,196
135655,296,553,635
135665,384,547,690
135675,302,315,142
135685,313,215,94
135695,373,355,120
135705,296,584,163
135715,311,504,163
135725,302,559,136
135736,298,568,149
135746,303,320,159
135756,346,537,134
135766,298,263,126
135776,299,377,141
135786,294,565,165
135796,521,450,141
135806,343,388,125
135816,294,273,119
135826,548,508,122
135836,295,386,125
135846,297,584,125
135856,291,595,152
135866,292,599,132
135876,300,405,143
135892,306,320,192
135908,309,332,160
135924,468,268,168
135940,304,488,128
135955,302,546,146
135971,311,488,134
135987,300,438,150
136003,312,588,140
136019,303,579,163
136034,304,480,156
136050,312,277,193
136066,311,568,567
136082,320,545,136
136098,295,465,171
136114,300,565,153
136129,295,531,206
136145,461,440,141
136161,309,528,674
136176,296,525,99
136193,344,551,133
136208,291,380,116
136224,302,550,127
136240,434,536,239
136256,283,450,134
136272,301,474,389
136288,500,457,300
136303,310,519,424
136319,474,478,284
136335,294,504,135
136351,304,484,119
136367,297,523,132
136382,302,530,136
136398,515,549,172
136414,388,544,175
136430,291,396,129
136446,301,548,134
136462,325,320,196
136477,302,534,245
136493,334,512,111
136509,288,530,117
136525,295,560,141
136541,353,556,146
136556,321,461,104
136572,327,435,125
136588,295,496,138
136604,300,554,130
136620,329,463,140
136636,296,441,151
136651,376,454,120
136667,298,546,160
136683,301,516,132
136699,293,542,131
136715,294,537,129
136730,444,321,128
136746,577,465,431
136762,298,446,122
136778,436,566,156
136793,298,412,98
136809,331,297,189
137817,3,517,165
137827,34,359
137837,297,564,159
137847,300,454,155
137857,309,568,124
137867,305,574,126
137877,299,531,176
137887,295,436,143
137897,304,551,146
137907,296,429,141
137917,310,248,141
137927,320,554,150
137937,304,538,145
137947,302,439,149
137957,320,467,155
137967,294,471,142
137977,299,239,158
137987,300,583,169
137997,303,538,155
138007,298,509,140
138017,393,371,150
138027,435,516,155
138037,300,397,145
138047,300,242,157
138057,314,371,164
138067,306,560,137
138078,313,438,132
138088,297,543,129
138098,305,536,144
138108,306,543,144
138119,361,497,126
138129,305,492,128
138139,311,481,162
138149,305,583,138
138160,314,436,170
138170,307,565,178
138180,299,323,148
138190,307,458,151
138200,300,549,162
138210,305,551,180
138220,566,561,413
138230,292,513,152
138241,295,560,164
138251,312,566,142
138261,304,569,141
138271,395,569,168
138281,304,561,168
138291,301,532,158
138302,580,559,139
138312,345,545,165
138322,581,554,510
138332,479,432,158
138342,286,523,147
138352,299,553,177
138362,293,524,602
138376,309,513,174
138391,553,512,203
138407,297,512,153
138423,341,512,216
138439,296,512,150
138455,305,512,155
138471,306,512,144
138486,295,512,150
138502,447,512,283
138518,293,512,142
138534,355,512,195
138550,298,512,148
138565,307,251,128
138581,290,466,163
138597,297,345,158
138613,301,520,160
138629,301,512,171
138645,297,491,158
138660,300,325,179
138676,307,349,154
138692,301,222,132
138708,293,354,171
138724,305,590,159
138739,299,502,174
138755,305,394,172
138771,304,464,146
138787,289,523,160
138803,302,463,155
138819,304,556,151
138834,290,566,158
138850,304,515,178
138866,299,559,140
138882,307,552,150
138898,302,571,177
138913,444,564,134
138929,307,538,142
138945,309,563,147
138961,308,536,144
138977,302,491,145
138993,298,549,143
139008,297,516,136
139024,294,439,164
139040,295,534,154
139056,305,500,141
139072,315,341,160
139087,389,537,134
139103,304,543,160
139119,308,535,173
139135,309,459,693
139151,317,436,127
139167,304,533,241
139182,360,400,210
139198,315,421,150
139214,305,458,161
139230,300,471,626
139246,320,450,132
139261,413,510,274
139277,303,441,153
139293,329,506,125
139309,314,525,133
139325,317,534,195
139341,353,536,160
139356,306,561,149
139372,517,505,325
139387,290,477,93
139404,442,516,174
139420,315,374,153
139435,452,498,239
139451,298,507,145
139467,287,550,116
139483,304,552,153
139499,304,458,158
139514,324,507,118
139530,310,522,218
139546,312,563,157
139562,296,420,117
139578,302,425,168
139594,299,401,170
139609,321,566,192
139625,305,415,162
139641,302,521,138
139657,477,554,183
139673,296,567,173
139688,315,462,173
139704,300,287,172
139720,317,484,177
139736,314,529,174
139752,344,521,163
139768,307,557,161
139783,305,541,133
139799,304,392,140
139815,301,549,121
139831,307,552,160
139847,342,544,153
139863,298,469,132
139878,308,343,128
139894,361,456,152
139910,295,494,115
139926,612,499,125
139941,317,486,99
139957,329,460,184
139973,314,387,138
139989,310,309,134
140005,305,497,132
140021,299,434,130
140036,303,400,144
140052,344,384,149
140068,517,505,267
140084,299,352,146
140100,294,565,273
140116,340,551,691
140131,327,470,223
140147,374,540,285
140163,293,493,120
140179,298,483,100
140195,366,562,113
140210,309,501,363
140226,294,558,150
140242,310,547,139
140258,281,542,123
140274,299,507,146
140290,305,391,130
140305,318,456,126
140321,417,537,530
140337,299,255,118
140353,297,552,607
140369,307,317,136
140385,298,538,138
140400,413,532,146
140416,372,533,131
140432,300,548,145
140448,594,514,119
140464,302,517,113
140479,341,545,153
140495,292,555,121
140511,291,545,622
140527,298,505,121
140543,505,553,114
140558,308,300,82
140574,328,583,179
140590,316,470,151
141652,
141662,317,356,137
141672,3,549,576
141682,40,129
141692,304,563,164
141702,396,539,134
141712,319,428,160
141722,296,293,168
141732,312,451,130
141742,424,560,271
141752,353,503,151
141762,415,513,112
141772,530,537,669
141782,296,480,125
141792,306,534,131
141802,304,455,135
141812,313,477,179
141822,305,390,152
141832,306,438,142
141842,317,565,120
141852,333,545,142
141862,303,245,127
141872,464,567,168
141882,307,519,150
141892,338,409,146
141902,452,437,167
141912,270,329,153
141922,596,359,200
141932,306,576,155
141942,300,556,128
141952,327,526,144
141962,320,450,154
141972,339,470,168
141982,339,421,161
141992,396,548,117
142002,343,471,131
142012,329,551,136
142022,324,357,134
142032,312,559,142
142042,442,521,128
142052,311,561,176
142062,513,439,155
142072,319,397,162
142083,579,569,494
142094,369,550,135
142106,549,529,136
142117,329,403,147
142128,377,424,144
142138,320,451,144
142148,317,411,519
142158,313,544,130
142169,318,528,152
142179,303,540,173
142189,300,549,172
142199,522,498,540
142210,307,507,143
142220,401,523,331
142235,310,495,144
142251,336,520,125
142267,294,541,403
142283,306,557,128
142299,466,552,428
142314,308,517,237
142330,351,533,200
142346,310,552,140
142362,472,557,156
142378,304,480,153
142393,318,402,159
142409,392,455,626
142425,561,455,124
142441,358,562,116
142457,318,555,134
142473,303,439,142
142488,480,543,280
142504,317,471,145
142520,444,478,468
142536,311,462,122
142552,312,498,150
142567,520,430,319
142583,311,400,144
142599,312,435,136
142615,306,419,149
142631,311,532,162
142647,306,562,131
142662,304,546,136
142678,309,430,124
142694,313,539,118
142710,317,573,117
142726,316,524,124
142742,305,497,150
142757,312,504,138
142773,316,529,184
142789,310,331,128
142805,310,308,132
142821,305,569,133
142836,297,553,134
142852,316,542,161
142868,310,439,161
142884,305,383,156
142900,309,534,144
142916,310,448,138
142931,318,471,140
142947,318,562,153
142963,307,537,128
142979,308,560,144
142995,320,283,156
143010,310,274,151
143026,366,372,148
143042,305,324,149
143058,305,367,148
143074,307,522,142
143090,312,513,287
143105,320,512,128
143121,320,514,491
143137,317,512,211
143153,305,513,159
143169,386,535,563
143185,307,542,167
143200,408,477,207
143216,316,520,212
143232,310,513,407
143248,327,524,331
143264,309,380,168
143279,344,413,137
143295,482,550,455
143311,307,496,139
143327,297,476,116
143343,305,449,126
144351,5,420,140
144361,25,141
