422782,625.00
422792,750.00
422802,740.00
422812,735.00
422822,706.00
422832,847.00
422842,797.00
422857,1024.00
422874,521.00
422889,401.00
422904,322.00
422920,182.00
422936,15.00
422951,15.00
422967,14.00
422982,15.00
422998,15.00
423015,15.00
423029,186.00
423045,1024.00
423061,1024.00
423076,1024.00
423092,1024.00
423108,1024.00
423123,1024.00
423139,1024.00
423155,1024.00
423170,1024.00
423186,1024.00
423201,1024.00
423217,834.00
423233,716.00
423248,761.00
423264,747.00
423280,629.00
423295,761.00
423311,976.00
423327,1024.00
423342,1024.00
423358,1024.00
423374,1024.00
423389,1024.00
423405,1024.00
423420,1024.00
423436,1024.00
423452,1024.00
423467,1024.00
423484,1024.00
423500,1024.00
423515,1024.00
423532,1024.00
423548,1024.00
423564,1024.00
423579,1024.00
423595,1024.00
423611,16.00
423627,15.00
423642,15.00
423657,17.00
423673,15.00
423688,15.00
423704,16.00
423720,14.00
423734,14.00
423750,15.00
423766,17.00
423782,16.00
423797,16.00
423813,14.00
423828,15.00
423845,16.00
423861,14.00
423875,16.00
423891,16.00
423907,14.00
423922,15.00
423938,18.00
424148,1024.00
424158,1024.00
424168,1024.00
424178,1024.00
424188,1024.00
424198,1024.00
424208,1024.00
424218,14.00
424228,15.00
424238,16.00
424248,16.00
424258,16.00
424268,17.00
424278,16.00
424343,14.00
424354,16.00
424364,15.00
424374,16.00
424384,161.00
424394,265.00
424404,200.00
424414,305.00
424424,308.00
424435,453.00
424445,342.00
424456,361.00
424466,148.00
424476,91.00
424487,192.00
424497,476.00
424507,466.00
424517,15.00
424527,16.00
424537,38.00
424547,403.00
424558,681.00
424568,622.00
424578,576.00
424588,668.00
424598,572.00
424608,606.00
424618,675.00
424628,667.00
424638,621.00
424649,559.00
424659,480.00
424674,615.00
424690,1024.00
424706,1024.00
424721,1024.00
424737,454.00
424752,224.00
424768,17.00
424784,16.00
424799,15.00
424815,16.00
424831,15.00
424846,16.00
424862,15.00
424877,15.00
424893,672.00
424909,776.00
424924,841.00
424940,1024.00
424956,1024.00
424971,1023.00
424987,1024.00
425003,1024.00
425018,1024.00
425034,1024.00
425050,1024.00
425066,1017.00
425082,1024.00
425098,829.00
425112,705.00
425128,428.00
425143,14.00
425159,17.00
425175,16.00
425190,15.00
425206,87.00
425222,1024.00
425238,1024.00
425253,1024.00
425269,1024.00
425284,1024.00
425300,1024.00
425316,1024.00
425331,1024.00
425348,1024.00
425364,1024.00
425378,1024.00
425394,915.00
425410,163.00
425425,17.00
425441,17.00
425456,15.00
425472,16.00
425488,280.00
425503,16.00
425519,16.00
425535,17.00
425550,272.00
425566,800.00
425582,847.00
425597,1024.00
425613,1024.00
425629,1024.00
425644,1024.00
425660,1024.00
425677,1024.00
425691,946.00
425707,790.00
425722,665.00
425738,169.00
425754,14.00
425769,14.00
425785,15.00
425801,14.00
425816,14.00
425832,14.00
425848,14.00
425863,14.00
425879,868.00
425895,1024.00
425910,1024.00
425926,1024.00
425941,1024.00
425957,1024.00
425973,1024.00
425988,1024.00
426004,1024.00
426020,1024.00
426035,1024.00
426051,919.00
426067,651.00
426082,398.00
426098,21.00
426113,14.00
426130,15.00
426145,14.00
426160,15.00
426176,14.00
426192,396.00
426208,830.00
426223,912.00
426239,1024.00
426254,1024.00
426270,1024.00
426286,1024.00
426301,1024.00
426317,1024.00
426333,1024.00
426348,1024.00
426364,1024.00
426379,1024.00
426395,979.00
426411,821.00
426426,609.00
426442,77.00
426458,15.00
426473,16.00
426489,15.00
426505,16.00
426520,14.00
426536,14.00
426552,292.00
426567,1024.00
426583,1024.00
426599,1024.00
426614,1024.00
426630,1024.00
426645,1024.00
426661,1024.00
426678,1024.00
426692,1024.00
426708,1024.00
426724,873.00
426739,596.00
426755,297.00
426771,81.00
426786,101.00
426802,355.00
426818,14.00
426833,16.00
426850,488.00
426864,511.00
426880,595.00
426896,919.00
426911,1024.00
426927,1024.00
426942,1024.00
426958,1024.00
426974,1024.00
426990,1024.00
427005,1024.00
427022,1024.00
427037,1024.00
427053,835.00
427068,823.00
427084,724.00
427099,506.00
427116,433.00
427130,339.00
427146,16.00
427162,13.00
427177,15.00
427193,15.00
427209,17.00
427225,862.00
427240,1024.00
427256,1024.00
427271,1024.00
427287,1024.00
427303,1024.00
427318,1024.00
427334,1024.00
427350,957.00
427365,870.00
427381,828.00
427396,679.00
427412,745.00
427428,580.00
427443,502.00
427459,1009.00
427475,406.00
427490,398.00
427506,219.00
427522,847.00
427537,766.00
427553,908.00
427569,955.00
427584,934.00
427600,939.00
427615,957.00
427631,885.00
427647,860.00
427662,805.00
427678,829.00
427694,826.00
427709,733.00
427725,534.00
427741,434.00
427756,424.00
427772,388.00
427788,473.00
427803,16.00
427819,15.00
427834,14.00
427850,16.00
427867,16.00
427881,603.00
427897,942.00
427913,948.00
427928,960.00
427944,1024.00
427960,914.00
427975,907.00
427991,907.00
428007,838.00
428022,759.00
428038,691.00
428053,590.00
428069,489.00
428085,247.00
428100,242.00
428116,679.00
428132,20.00
428147,16.00
428163,34.00
428179,166.00
428194,292.00
428210,476.00
428226,723.00
428241,951.00
428257,977.00
428272,1016.00
428289,1003.00
428304,944.00
428319,909.00
428335,894.00
428351,868.00
428366,844.00
428383,728.00
428399,626.00
428413,604.00
428430,624.00
428445,870.00
428460,377.00
428476,15.00
428492,15.00
428507,14.00
428523,14.00
428539,16.00
428554,65.00
428570,410.00
428585,691.00
428601,856.00
428617,856.00
428632,786.00
428648,739.00
428664,795.00
428680,748.00
428695,722.00
428711,636.00
428725,566.00
428742,535.00
428758,572.00
428773,907.00
428789,424.00
428804,286.00
428820,333.00
428836,471.00
428852,512.00
428867,561.00
428883,526.00
428898,625.00
428914,759.00
428930,762.00
428945,876.00
428961,903.00
428977,920.00
428992,855.00
429008,816.00
429023,774.00
429039,747.00
429055,732.00
429070,592.00
429086,574.00
429102,954.00
429117,445.00
429133,258.00
429149,260.00
429164,374.00
429180,374.00
429196,509.00
429211,494.00
429227,574.00
429242,594.00
429258,713.00
429274,676.00
429289,525.00
429306,699.00
429321,631.00
429336,631.00
429352,699.00
429369,630.00
429383,636.00
429399,637.00
429415,634.00
429430,823.00
429446,408.00
429462,267.00
429477,307.00
429494,478.00
429508,441.00
429524,464.00
429540,322.00
429555,292.00
429571,353.00
429588,519.00
429602,497.00
429618,565.00
429634,753.00
429649,789.00
429665,882.00
429681,775.00
429696,753.00
429712,701.00
429728,705.00
429743,667.00
429759,1023.00
429774,936.00
429790,509.00
429806,526.00
429821,644.00
429837,682.00
429853,703.00
429868,643.00
429884,633.00
429900,650.00
429915,649.00
429931,711.00
429947,691.00
429962,701.00
429978,612.00
429993,650.00
430009,544.00
430025,740.00
430040,805.00
430056,773.00
430072,726.00
430087,1024.00
430103,1003.00
430119,639.00
430134,702.00
430150,845.00
430166,825.00
430181,819.00
430197,725.00
430212,704.00
430228,652.00
430244,560.00
430259,365.00
430275,230.00
430291,88.00
430306,92.00
430322,260.00
430338,510.00
430353,541.00
430369,530.00
430384,794.00
430400,679.00
430416,950.00
430431,1024.00
430447,752.00
430463,760.00
430478,908.00
430494,917.00
430510,974.00
430525,977.00
430541,979.00
430557,968.00
430572,913.00
430588,837.00
430603,811.00
430619,783.00
430635,792.00
430650,813.00
430666,801.00
430682,813.00
430697,760.00
430713,658.00
430729,487.00
430744,873.00
430760,1024.00
430776,1024.00
430791,833.00
430807,877.00
430822,1015.00
430838,1024.00
430854,1024.00
430869,1024.00
430885,1024.00
430901,990.00
430916,948.00
430932,984.00
430948,893.00
430963,868.00
430979,906.00
430995,881.00
431010,856.00
431026,794.00
431041,729.00
431057,753.00
431073,636.00
431088,970.00
431104,964.00
431120,648.00
431135,648.00
431151,811.00
431168,802.00
431182,763.00
431198,765.00
431214,811.00
431229,868.00
431245,830.00
431260,842.00
431277,763.00
431292,777.00
431307,764.00
431324,788.00
431339,694.00
431354,639.00
431370,595.00
431386,610.00
431401,571.00
431417,828.00
431433,1024.00
431448,560.00
431464,460.00
431480,780.00
431495,874.00
431511,865.00
431526,884.00
431542,877.00
431558,885.00
431573,882.00
431589,859.00
431605,840.00
431620,828.00
431636,808.00
431652,859.00
431667,820.00
431683,775.00
431699,655.00
431714,630.00
431730,554.00
431745,559.00
431762,1010.00
431777,605.00
431792,441.00
431808,622.00
431824,741.00
431839,740.00
431855,729.00
431871,723.00
431886,723.00
431902,736.00
431918,795.00
431933,754.00
431949,784.00
431965,800.00
431981,817.00
431996,757.00
432011,723.00
432027,630.00
432043,578.00
432058,525.00
432074,458.00
432090,738.00
432105,604.00
432121,199.00
432137,267.00
432152,386.00
432168,453.00
432184,549.00
432199,613.00
432216,723.00
432231,801.00
432246,843.00
432262,856.00
432277,836.00
432293,808.00
432309,785.00
432324,740.00
432340,796.00
432356,740.00
432371,710.00
432387,728.00
432403,763.00
432418,1024.00
432434,1024.00
432450,637.00
432465,606.00
432481,712.00
432496,727.00
432512,722.00
432528,821.00
432543,783.00
432559,680.00
432575,556.00
432590,540.00
432606,572.00
432622,624.00
432637,697.00
432653,820.00
432668,841.00
432684,861.00
432700,765.00
432715,736.00
432731,700.00
432747,712.00
432762,990.00
724799,432.00
724809,376.00
724819,339.00
724829,319.00
724839,320.00
724849,322.00
724859,322.00
724869,308.00
724879,308.00
725194,379.00
725205,406.00
725215,436.00
725225,452.00
725235,489.00
725493,568.00
725506,609.00
725517,628.00
725528,628.00
725538,637.00
725548,626.00
725558,612.00
725568,582.00
725578,581.00
725588,589.00
725598,605.00
725608,615.00
725618,600.00
725629,618.00
725639,771.00
725649,1024.00
725659,1024.00
725669,830.00
725679,422.00
725689,425.00
725699,516.00
725709,602.00
725719,605.00
725729,609.00
725739,619.00
725749,622.00
725759,626.00
725769,637.00
725779,640.00
725789,655.00
725799,674.00
725809,699.00
725819,702.00
725829,702.00
725839,697.00
725849,691.00
725859,664.00
725869,646.00
725879,620.00
725889,597.00
725899,588.00
725909,586.00
725920,589.00
725930,598.00
725940,602.00
725950,605.00
725960,608.00
725970,607.00
725980,609.00
725990,600.00
726000,608.00
726010,601.00
726020,602.00
726030,630.00
726042,649.00
726057,641.00
726073,646.00
726089,644.00
726105,589.00
726121,573.00
726137,560.00
726152,564.00
726168,547.00
726184,793.00
726200,1024.00
726216,451.00
726231,367.00
726247,531.00
726263,553.00
726279,557.00
726294,561.00
726310,571.00
726326,602.00
726342,617.00
726358,650.00
726374,636.00
726390,614.00
726405,586.00
726421,553.00
726437,517.00
726453,508.00
726469,506.00
726484,511.00
726500,530.00
726516,517.00
726532,512.00
726548,505.00
726564,508.00
726579,504.00
726595,533.00
726611,536.00
726627,531.00
726643,547.00
726659,500.00
726674,461.00
726690,472.00
726706,464.00
726722,450.00
726738,604.00
726753,994.00
726769,490.00
726785,269.00
726801,357.00
726817,466.00
726833,480.00
726848,486.00
726864,505.00
726880,535.00
726896,554.00
726912,580.00
726928,604.00
726942,608.00
726959,555.00
726975,504.00
726991,468.00
727007,454.00
727022,454.00
727038,471.00
727054,477.00
727070,475.00
727086,470.00
727101,464.00
727117,458.00
727133,450.00
727149,458.00
727165,492.00
727181,504.00
727196,505.00
727212,489.00
727228,444.00
727244,427.00
727260,437.00
727275,426.00
727291,421.00
727307,696.00
727323,943.00
727339,274.00
727355,255.00
727370,393.00
727386,423.00
727402,437.00
727418,454.00
727434,459.00
727449,484.00
727465,511.00
727481,535.00
727497,528.00
727513,520.00
727529,493.00
727544,466.00
727560,438.00
727576,425.00
727592,435.00
727608,448.00
727623,450.00
727639,448.00
727655,450.00
727671,442.00
727687,447.00
727703,445.00
727718,451.00
727734,492.00
727750,499.00
727766,504.00
727782,495.00
727796,435.00
727813,434.00
727829,422.00
727845,406.00
727861,461.00
727877,844.00
727932,391.00
727943,463.00
727953,497.00
727963,522.00
727973,538.00
727983,566.00
727994,589.00
728037,721.00
728047,754.00
728057,749.00
728067,725.00
728077,726.00
728087,713.00
728098,673.00
728114,625.00
728130,616.00
728146,610.00
728161,613.00
728270,549.00
728281,571.00
728291,604.00
728301,614.00
728311,615.00
728321,608.00
728331,621.00
728341,622.00
728351,588.00
728361,559.00
728371,550.00
728381,546.00
728391,540.00
728401,531.00
728411,519.00
728421,509.00
728432,660.00
728446,1024.00
728462,700.00
728478,297.00
728494,408.00
728509,493.00
728525,502.00
728541,498.00
728557,506.00
728573,533.00
728588,565.00
728604,572.00
728620,598.00
728636,554.00
728652,568.00
728668,540.00
728684,518.00
728699,480.00
728715,490.00
728731,493.00
728747,523.00
728762,506.00
728778,473.00
728794,504.00
728810,504.00
728826,459.00
728842,499.00
728857,518.00
728873,542.00
728889,496.00
728905,549.00
728921,454.00
728937,576.00
728952,688.00
728968,797.00
728984,942.00
729000,1024.00
729016,1024.00
729031,1024.00
729047,173.00
729063,302.00
729079,248.00
729095,640.00
729111,905.00
729126,1024.00
729142,1015.00
729158,1024.00
729174,1024.00
729190,401.00
729205,15.00
729221,15.00
729237,14.00
729253,16.00
729269,15.00
729285,14.00
729300,18.00
729316,17.00
729332,17.00
729348,16.00
729364,15.00
729379,15.00
729395,19.00
729411,15.00
729427,121.00
729443,87.00
729459,125.00
729474,160.00
729490,120.00
729506,166.00
729522,200.00
729538,241.00
729554,651.00
729569,581.00
729585,166.00
729601,546.00
729617,1024.00
729633,1024.00
729648,1024.00
729664,1024.00
729680,1024.00
729696,1024.00
729712,1024.00
729728,1024.00
729743,1024.00
729759,1024.00
729775,1024.00
729791,978.00
729807,896.00
729822,861.00
729838,853.00
729854,800.00
729870,790.00
729886,750.00
729902,725.00
729917,691.00
729933,699.00
729949,713.00
729965,700.00
729981,697.00
729996,673.00
730012,657.00
730028,592.00
730044,631.00
730060,579.00
730076,541.00
730091,819.00
730107,1024.00
730123,476.00
730139,398.00
730155,390.00
730170,520.00
730186,510.00
730202,490.00
730218,474.00
730234,543.00
730250,589.00
730265,581.00
730281,564.00
730297,609.00
730313,513.00
730329,442.00
730345,453.00
730360,448.00
730376,414.00
730392,468.00
730408,439.00
730424,507.00
730460,460.00
730472,495.00
730483,458.00
730494,553.00
730505,556.00
730519,538.00
730534,536.00
730550,454.00
730605,439.00
730616,488.00
730626,761.00
730637,1018.00
730712,449.00
730723,477.00
730733,469.00
730743,482.00
730753,436.00
730763,509.00
730773,555.00
730783,509.00
730794,562.00
730804,566.00
730814,494.00
730824,566.00
730835,521.00
730845,518.00
730855,469.00
730867,430.00
730882,410.00
730898,399.00
730914,396.00
730930,422.00
730946,389.00
730961,388.00
730977,396.00
730993,381.00
731009,448.00
731025,473.00
731041,457.00
731056,459.00
731072,411.00
731088,428.00
731104,362.00
731120,408.00
731136,390.00
731151,713.00
731167,821.00
731183,258.00
731199,260.00
731215,377.00
731230,439.00
731246,413.00
731262,420.00
731278,459.00
731294,502.00
731310,475.00
731325,530.00
731341,547.00
731357,499.00
731373,510.00
731389,451.00
731404,416.00
731420,438.00
731436,465.00
731452,486.00
731468,476.00
731484,460.00
731499,471.00
731515,522.00
731531,489.00
731547,512.00
731563,524.00
731578,508.00
731594,461.00
731610,462.00
731626,456.00
731642,423.00
731658,541.00
731673,941.00
731689,688.00
731705,261.00
731721,332.00
731737,488.00
731752,440.00
731768,496.00
731784,529.00
731800,511.00
731816,476.00
731831,581.00
731847,588.00
731863,585.00
731879,560.00
731895,500.00
731911,504.00
731926,532.00
731942,456.00
731958,533.00
731974,496.00
731990,497.00
732006,495.00
732021,504.00
732037,525.00
732053,543.00
732069,544.00
732085,531.00
732100,488.00
732116,486.00
732132,473.00
732148,452.00
732164,474.00
732180,833.00
732195,905.00
732211,292.00
732227,308.00
732242,426.00
732259,464.00
732274,440.00
732290,488.00
732306,499.00
732322,534.00
732338,556.00
732354,353.00
732369,17.00
732385,18.00
732401,494.00
732417,989.00
732433,1024.00
732448,1024.00
732464,1024.00
732480,1024.00
732496,1024.00
732512,1024.00
732528,1024.00
732543,1024.00
732559,1024.00
732575,1024.00
732591,1024.00
732607,1024.00
732623,1024.00
732638,1024.00
732654,1024.00
732670,1024.00
732686,1024.00
732702,1024.00
732717,1024.00
732733,1024.00
732749,1024.00
732765,1024.00
732781,1024.00
732797,1024.00
732812,1024.00
732828,1024.00
732844,1024.00
732860,541.00
732876,543.00
732920,532.00
732931,537.00
732941,537.00
732951,534.00
732961,369.00
732971,260.00
732987,168.00
733002,197.00
733018,230.00
733065,256.00
733075,280.00
733085,270.00
733095,262.00
733105,256.00
733115,386.00
733129,508.00
733199,1024.00
733210,738.00
733220,417.00
733230,480.00
733240,606.00
733250,713.00
733260,734.00
733270,750.00
733280,746.00
733290,729.00
733303,741.00
733319,773.00
733334,772.00
733350,769.00
733366,761.00
733382,713.00
733398,701.00
733414,641.00
733429,604.00
733445,601.00
733461,580.00
733477,613.00
733493,591.00
733509,557.00
733524,614.00
733540,618.00
733556,664.00
733572,667.00
733588,664.00
733603,578.00
733619,624.00
733635,678.00
733651,692.00
733667,669.00
733682,980.00
733698,1024.00
733714,343.00
733730,355.00
733746,526.00
733762,552.00
733777,580.00
733793,596.00
733809,654.00
733825,717.00
733841,723.00
733857,732.00
733872,703.00
733888,690.00
733904,639.00
733920,592.00
733936,588.00
733951,1024.00
733967,1024.00
733983,1024.00
733999,1024.00
734015,1024.00
734031,1024.00
734046,1024.00
734062,1024.00
734078,1024.00
734094,1024.00
734110,1024.00
734125,1024.00
734141,1024.00
734157,1024.00
734173,1024.00
734189,1024.00
734205,1024.00
734220,1024.00
734236,1024.00
734252,1024.00
734268,1024.00
734284,1024.00
734300,1024.00
734315,1024.00
734331,1024.00
734347,1024.00
734363,1024.00
734379,1024.00
734394,1024.00
734410,1024.00
734426,1024.00
734442,1024.00
734458,1024.00
734474,1024.00
734489,1024.00
734505,1024.00
734521,1024.00
734537,1024.00
734553,1024.00
734568,1024.00
734584,1024.00
734600,1024.00
734616,1024.00
734632,533.00
734648,544.00
734663,541.00
734679,538.00
734695,541.00
734711,534.00
734727,520.00
734742,555.00
734758,652.00
734774,648.00
734789,640.00
734806,628.00
734822,594.00
734837,600.00
734853,643.00
734869,639.00
734885,641.00
734901,601.00
734916,567.00
734932,514.00
734948,483.00
734964,439.00
734980,445.00
734996,468.00
735011,447.00
735027,433.00
735043,460.00
735059,480.00
735075,485.00
735091,463.00
735106,447.00
735122,369.00
735138,355.00
735154,344.00
735170,303.00
735185,376.00
735201,782.00
735217,512.00
735233,172.00
735249,230.00
735265,352.00
735280,380.00
735296,393.00
735312,409.00
735328,433.00
735344,456.00
735359,482.00
735375,490.00
735389,504.00
735407,497.00
735423,465.00
735438,447.00
735454,425.00
735539,481.00
735552,544.00
735562,565.00
735573,572.00
735583,588.00
735593,585.00
735603,600.00
735613,622.00
735623,617.00
735633,588.00
735643,590.00
735653,608.00
735663,626.00
735676,536.00
735692,460.00
735707,913.00
735723,658.00
735769,81.00
735780,48.00
735790,28.00
735800,18.00
735810,32.00
735820,224.00
735833,236.00
735850,193.00
735866,50.00
735882,17.00
735897,15.00
735996,15.00
736007,18.00
736017,15.00
736027,18.00
736037,18.00
736047,16.00
736060,16.00
736070,18.00
736080,17.00
736090,17.00
736100,18.00
736110,16.00
736120,16.00
736130,18.00
736140,17.00
736150,15.00
736166,105.00
736182,165.00
736198,264.00
736214,769.00
736229,581.00
736245,86.00
736261,213.00
736277,274.00
736293,317.00
736308,358.00
736324,415.00
736340,487.00
736356,561.00
736372,628.00
736388,678.00
736403,691.00
736419,716.00
736435,704.00
736451,698.00
736467,679.00
736483,735.00
736498,742.00
736514,764.00
736530,764.00
736546,807.00
736562,797.00
736577,805.00
736593,816.00
736609,824.00
736625,825.00
736641,788.00
736657,744.00
736672,728.00
736688,734.00
736704,711.00
736720,1020.00
736736,1024.00
736752,684.00
736767,545.00
736783,710.00
736799,747.00
736815,758.00
736831,762.00
736846,772.00
736862,777.00
736878,796.00
736894,811.00
736910,842.00
736926,811.00
736941,806.00
736957,781.00
736973,733.00
736989,746.00
737005,687.00
737021,709.00
737036,711.00
737052,709.00
737068,644.00
737084,687.00
737100,661.00
737115,652.00
737131,654.00
737147,632.00
737163,585.00
737179,577.00
737195,592.00
737210,549.00
737226,697.00
737242,1024.00
737258,591.00
737274,369.00
737289,430.00
737305,522.00
737321,532.00
737337,519.00
737353,530.00
737369,546.00
737384,564.00
737400,596.00
737416,595.00
737432,610.00
737448,581.00
737464,565.00
737479,528.00
737495,506.00
737511,508.00
737527,526.00
737543,521.00
737558,536.00
737574,530.00
737590,536.00
737606,564.00
737622,578.00
737638,565.00
737653,566.00
737669,516.00
737685,495.00
737701,496.00
737717,451.00
737733,525.00
737748,976.00
737764,807.00
737780,284.00
737796,406.00
737812,509.00
737827,525.00
737843,568.00
737859,633.00
737875,760.00
737891,870.00
737907,948.00
737922,1024.00
737938,1024.00
737954,1024.00
737970,1024.00
737986,1024.00
738002,1024.00
738017,1024.00
738033,1024.00
738049,938.00
738065,932.00
738081,952.00
738096,942.00
738112,938.00
738177,658.00
738188,600.00
738198,564.00
738208,517.00
738218,471.00
738252,610.00
738263,969.00
738273,843.00
738283,348.00
738293,145.00
738388,816.00
738399,823.00
738409,828.00
738419,819.00
738429,832.00
738439,820.00
738450,789.00
738460,786.00
738471,744.00
738484,690.00
738495,646.00
738506,621.00
738517,607.00
738528,590.00
738538,591.00
738548,589.00
738558,569.00
738568,558.00
738578,545.00
738588,534.00
738603,522.00
738618,521.00
738634,518.00
738650,531.00
738666,501.00
738681,459.00
738697,396.00
738713,386.00
738729,368.00
738745,258.00
738761,493.00
738777,720.00
738792,150.00
738808,37.00
738824,136.00
738840,231.00
738856,288.00
738872,297.00
738887,296.00
738903,306.00
738919,329.00
738935,340.00
738951,343.00
738966,354.00
738982,354.00
738998,346.00
739014,321.00
739030,314.00
739046,341.00
739061,339.00
739077,358.00
739093,363.00
739109,360.00
739125,375.00
739141,391.00
739156,393.00
739172,415.00
739188,398.00
739204,366.00
739220,364.00
739235,404.00
739251,400.00
739267,658.00
739283,1024.00
739299,727.00
739315,380.00
739330,525.00
739346,592.00
739362,593.00
739378,601.00
739394,589.00
739409,592.00
739425,603.00
739441,624.00
739457,636.00
739473,653.00
739489,627.00
739504,607.00
739520,568.00
739536,550.00
739552,533.00
739568,535.00
739583,532.00
739599,523.00
739615,519.00
739631,530.00
739647,554.00
739663,569.00
739678,546.00
739694,545.00
739710,490.00
739726,466.00
739742,448.00
739757,410.00
739773,470.00
739789,936.00
739805,703.00
739821,223.00
739837,336.00
739852,442.00
739868,469.00
739884,453.00
739900,445.00
739916,381.00
739932,473.00
739948,532.00
739963,517.00
739979,542.00
739995,492.00
740011,471.00
740026,427.00
740042,423.00
740058,416.00
740074,429.00
740090,448.00
740106,412.00
740121,428.00
740137,385.00
740153,416.00
740169,368.00
740185,391.00
740200,432.00
740216,362.00
740232,333.00
740248,344.00
740264,320.00
740280,369.00
740295,722.00
740311,795.00
740327,241.00
740343,229.00
740359,342.00
740375,392.00
740390,405.00
740406,389.00
740422,429.00
740438,417.00
740454,488.00
740469,501.00
740485,498.00
740501,502.00
740517,492.00
740533,437.00
740549,410.00
740564,428.00
740580,432.00
740651,488.00
740661,498.00
740671,529.00
740681,528.00
740691,524.00
740701,452.00
740711,416.00
740721,351.00
740731,337.00
740741,308.00
740754,321.00
740770,340.00
740810,807.00
740821,360.00
740831,222.00
740841,228.00
740851,249.00
740865,357.00
740881,368.00
740897,373.00
740912,393.00
740989,487.00
741000,504.00
741010,477.00
741020,470.00
741030,465.00
741040,469.00
741050,389.00
741060,348.00
741070,319.00
741080,319.00
741090,319.00
741102,332.00
741117,328.00
741134,325.00
741150,364.00
741165,404.00
741181,448.00
741197,600.00
741213,732.00
741229,704.00
741244,713.00
741260,675.00
741276,622.00
741292,854.00
741308,1024.00
741324,658.00
741339,430.00
741355,534.00
741371,584.00
741387,588.00
741403,557.00
741418,567.00
741434,578.00
741450,576.00
741466,579.00
741482,583.00
741498,561.00
741513,552.00
741529,511.00
741545,466.00
741561,445.00
741577,435.00
741593,372.00
741608,416.00
741624,405.00
741640,397.00
741656,420.00
741672,409.00
741687,392.00
741703,392.00
741719,384.00
741735,354.00
741751,368.00
741767,320.00
741782,430.00
741798,876.00
741814,672.00
741830,223.00
741846,340.00
741861,450.00
741877,490.00
741893,506.00
741909,522.00
741925,531.00
741941,576.00
741956,595.00
741972,606.00
741988,600.00
742004,581.00
742020,570.00
742035,481.00
742051,446.00
742067,463.00
742083,438.00
742099,428.00
742115,408.00
742130,452.00
742146,459.00
742162,471.00
742178,432.00
742194,356.00
742209,291.00
742225,255.00
742241,222.00
742257,173.00
742273,236.00
742289,700.00
742304,561.00
742320,82.00
742336,210.00
742352,364.00
742368,353.00
742383,381.00
742399,504.00
742415,596.00
742431,729.00
742447,877.00
742463,1009.00
742478,1024.00
742494,1024.00
742510,1024.00
742526,972.00
742542,940.00
742558,928.00
742573,931.00
742589,903.00
742604,910.00
742621,903.00
742637,904.00
742652,897.00
742668,882.00
742684,836.00
742700,764.00
742716,753.00
742731,732.00
742747,678.00
742763,879.00
742779,1024.00
742795,640.00
742811,477.00
742826,582.00
742841,630.00
742858,620.00
742874,630.00
742889,622.00
742905,625.00
742921,620.00
742937,641.00
742953,636.00
742969,624.00
742984,607.00
743000,569.00
743016,534.00
743032,521.00
743048,504.00
743064,504.00
743079,519.00
743095,531.00
743111,543.00
743127,553.00
743143,554.00
743159,541.00
743174,471.00
743190,454.00
743206,463.00
743222,394.00
743238,464.00
743253,929.00
743269,680.00
743285,218.00
743301,324.00
743317,447.00
743333,486.00
743348,520.00
743364,521.00
743380,545.00
743396,570.00
743412,588.00
743495,574.00
743508,569.00
743519,606.00
743529,615.00
743540,625.00
743550,622.00
743560,636.00
743571,625.00
743581,639.00
743591,662.00
743601,668.00
743611,703.00
743621,674.00
743633,675.00
743649,645.00
743701,550.00
743712,530.00
743722,625.00
743732,879.00
743742,1002.00
743752,699.00
743762,366.00
743775,331.00
743791,448.00
743807,495.00
743923,535.00
743933,528.00
743943,534.00
743953,517.00
743963,490.00
743973,476.00
743983,440.00
743993,424.00
744003,422.00
744013,429.00
744024,449.00
744035,445.00
744045,441.00
744055,450.00
744065,456.00
744075,461.00
744085,452.00
744095,438.00
744108,412.00
744123,411.00
744139,344.00
744155,293.00
744171,303.00
744187,242.00
744203,151.00
744218,230.00
744234,16.00
744250,16.00
744266,16.00
744282,15.00
744298,14.00
744313,15.00
744329,17.00
744345,19.00
744361,16.00
744377,186.00
744392,208.00
744408,268.00
744424,216.00
744440,52.00
744456,15.00
744472,16.00
744486,126.00
744503,781.00
744519,1024.00
744535,1024.00
744551,1024.00
744566,1024.00
744582,1024.00
744598,1024.00
744614,976.00
744630,893.00
744646,865.00
744661,840.00
744677,787.00
744693,976.00
744709,1024.00
744725,865.00
744740,547.00
744756,622.00
744772,757.00
744788,267.00
744804,17.00
744820,17.00
744835,16.00
744851,18.00
744867,14.00
744883,49.00
744899,89.00
744915,102.00
744930,106.00
744946,153.00
744962,130.00
744977,176.00
744994,190.00
745008,400.00
745025,869.00
745041,1024.00
745057,1024.00
745073,1024.00
745088,1024.00
745104,1024.00
745120,1023.00
745136,969.00
745152,958.00
745168,909.00
745182,1024.00
745199,1024.00
745215,1024.00
745231,730.00
745247,855.00
745262,917.00
745278,903.00
745294,902.00
745310,895.00
745326,880.00
745342,868.00
745357,850.00
745373,850.00
745389,805.00
745405,757.00
745420,700.00
745436,661.00
745452,627.00
745468,570.00
745484,561.00
745500,549.00
745515,523.00
745531,514.00
745547,519.00
745563,514.00
745579,504.00
745595,484.00
745610,427.00
745626,403.00
745642,402.00
745658,358.00
745674,456.00
745689,873.00
745705,602.00
745721,127.00
745737,256.00
745753,348.00
745769,342.00
745785,396.00
745800,392.00
745816,392.00
745832,458.00
745848,459.00
745864,500.00
745879,485.00
745895,465.00
745911,424.00
745927,392.00
745943,353.00
745958,354.00
745974,343.00
745990,340.00
746006,339.00
746022,338.00
746038,377.00
746053,379.00
746069,378.00
746085,374.00
746157,294.00
746167,337.00
746177,495.00
746187,784.00
746197,817.00
746207,387.00
746217,166.00
746227,168.00
746271,399.00
746282,389.00
746292,390.00
746302,410.00
746370,457.00
746380,464.00
746390,465.00
746400,466.00
746410,460.00
746420,445.00
746431,453.00
746442,436.00
746454,421.00
746465,462.00
746476,486.00
746487,552.00
746497,577.00
746508,596.00
746518,604.00
746528,586.00
746544,590.00
746560,584.00
746575,578.00
746591,543.00
746607,499.00
746623,448.00
746639,434.00
746654,418.00
746670,396.00
746686,558.00
746702,913.00
746718,330.00
746734,211.00
746749,276.00
746764,366.00
746781,389.00
746797,365.00
746813,387.00
746828,409.00
746844,451.00
746860,496.00
746876,482.00
746892,490.00
746908,478.00
746923,420.00
746939,418.00
746955,382.00
746971,376.00
746987,356.00
747002,344.00
747018,339.00
747034,346.00
747050,361.00
747066,398.00
747082,390.00
747097,432.00
747113,413.00
747129,341.00
747145,305.00
747161,290.00
747176,293.00
747192,339.00
747208,700.00
747224,701.00
747240,185.00
747256,218.00
747271,369.00
747287,390.00
747303,428.00
747319,432.00
747335,440.00
747350,490.00
747366,537.00
747382,570.00
747398,573.00
747414,585.00
747430,573.00
747445,516.00
747461,472.00
747477,516.00
747493,494.00
747509,507.00
747524,518.00
747540,572.00
747556,601.00
747572,682.00
747588,717.00
747604,733.00
747619,799.00
747635,765.00
747651,699.00
747667,694.00
747683,677.00
747699,667.00
747714,769.00
747730,1024.00
747746,721.00
747762,442.00
747778,543.00
747793,603.00
747809,624.00
747825,633.00
747841,625.00
747857,642.00
747873,615.00
747888,646.00
747904,655.00
747920,641.00
747936,618.00
747952,578.00
747967,550.00
747983,529.00
747999,534.00
748015,560.00
748031,568.00
748047,572.00
748062,592.00
748078,573.00
748094,590.00
748110,600.00
748126,576.00
748142,607.00
748157,543.00
748173,512.00
748189,521.00
748205,476.00
748221,489.00
748236,789.00
748252,856.00
748268,315.00
748284,325.00
748300,524.00
748316,583.00
748331,583.00
748347,637.00
748363,642.00
748379,641.00
748395,644.00
748410,687.00
748426,644.00
748442,682.00
748458,658.00
748474,576.00
748490,560.00
748505,542.00
748521,521.00
748537,501.00
748553,457.00
748569,475.00
748584,499.00
748600,546.00
748616,626.00
748632,703.00
748648,710.00
748693,569.00
748704,552.00
748714,537.00
748724,499.00
748734,564.00
748789,293.00
748800,332.00
748810,438.00
748820,453.00
748830,483.00
748927,600.00
748938,570.00
748948,556.00
748958,534.00
748968,509.00
748978,505.00
748988,458.00
748998,473.00
749009,437.00
749019,429.00
749029,456.00
749039,464.00
749049,400.00
749060,410.00
749070,465.00
749080,482.00
749090,472.00
749100,436.00
749110,409.00
749122,437.00
749138,472.00
749154,523.00
749170,460.00
749186,376.00
749201,324.00
749217,324.00
749233,307.00
749249,314.00
749265,609.00
749281,740.00
749296,168.00
749312,189.00
749328,350.00
749344,386.00
749360,377.00
749375,432.00
749391,414.00
749407,486.00
749423,483.00
749439,475.00
749455,461.00
749470,428.00
749486,438.00
749502,365.00
749518,309.00
749534,253.00
749550,348.00
749565,374.00
749581,456.00
749597,465.00
749613,497.00
749629,638.00
749644,655.00
749660,697.00
749676,643.00
749692,578.00
749708,518.00
749724,531.00
749739,493.00
749755,530.00
749771,742.00
749787,909.00
749803,382.00
749818,340.00
749834,439.00
749850,529.00
749866,500.00
749882,520.00
749898,533.00
749913,558.00
749929,580.00
749945,662.00
749961,639.00
749977,629.00
749992,629.00
750008,557.00
750024,531.00
750040,518.00
750056,507.00
750072,486.00
750087,468.00
750103,480.00
750119,471.00
750135,444.00
750151,461.00
750166,434.00
750182,451.00
750198,381.00
750214,365.00
750230,357.00
750246,380.00
750261,408.00
750277,738.00
750293,785.00
750309,288.00
750325,322.00
750341,504.00
750356,494.00
750372,569.00
750388,586.00
750404,532.00
750420,632.00
750435,636.00
750451,614.00
750467,625.00
750483,583.00
750499,557.00
750515,557.00
750530,521.00
750546,511.00
750562,557.00
750578,650.00
750594,687.00
750609,665.00
750625,642.00
750641,592.00
750657,517.00
750673,525.00
750689,510.00
750704,452.00
750720,470.00
750736,510.00
750752,489.00
750768,605.00
750783,1018.00
750799,516.00
750815,281.00
750831,333.00
750847,486.00
750863,533.00
750878,440.00
750894,499.00
750910,487.00
750926,502.00
750942,555.00
750957,630.00
750973,634.00
750989,571.00
751005,492.00
751021,496.00
751037,459.00
751052,426.00
751068,374.00
751084,399.00
751100,387.00
751116,415.00
751132,453.00
751147,404.00
751163,422.00
751179,405.00
751195,336.00
751211,364.00
751226,349.00
751242,315.00
751258,434.00
751274,913.00
751290,658.00
751370,374.00
751381,331.00
751391,384.00
751401,413.00
751411,404.00
751422,376.00
751433,437.00
751513,833.00
751526,668.00
751537,564.00
751547,549.00
751557,543.00
751568,470.00
751578,510.00
751749,486.00
751759,667.00
751769,949.00
751779,847.00
751789,358.00
751799,163.00
751809,225.00
751819,304.00
751830,339.00
751841,358.00
751851,396.00
751861,394.00
751872,389.00
751882,368.00
751892,385.00
751902,381.00
751912,381.00
751922,413.00
751932,445.00
751942,508.00
751952,522.00
751962,497.00
751972,477.00
751982,397.00
751992,346.00
752002,333.00
752012,332.00
752022,344.00
752032,362.00
752042,387.00
752052,390.00
752062,391.00
752072,376.00
752082,469.00
752092,434.00
752102,436.00
752112,473.00
752122,494.00
752132,513.00
752144,564.00
752160,566.00
752176,593.00
752191,578.00
752207,541.00
752223,421.00
752239,605.00
752255,1010.00
752271,510.00
752286,221.00
752302,223.00
752318,409.00
752334,426.00
752350,415.00
752365,497.00
752381,528.00
752397,577.00
752413,555.00
752429,590.00
752445,666.00
752460,666.00
752476,571.00
752492,550.00
752508,561.00
752524,559.00
752540,550.00
752555,560.00
752571,564.00
752587,634.00
752603,651.00
752619,655.00
752634,679.00
752650,625.00
752666,593.00
752682,616.00
752698,555.00
752714,609.00
752729,973.00
752745,692.00
752761,305.00
752777,373.00
752793,562.00
752809,476.00
752824,470.00
752840,460.00
752856,331.00
752872,281.00
752888,224.00
752903,332.00
752919,404.00
752935,337.00
752951,357.00
752967,279.00
752983,126.00
752998,17.00
753014,16.00
753030,18.00
753046,480.00
753062,579.00
753077,676.00
753093,774.00
753109,799.00
753125,918.00
753141,497.00
753157,17.00
753172,118.00
753188,390.00
753204,778.00
753220,516.00
753236,130.00
753252,372.00
753267,416.00
753283,496.00
753299,559.00
753315,916.00
753331,1001.00
753346,984.00
753362,802.00
753378,17.00
753394,18.00
753410,19.00
753426,17.00
753441,16.00
753457,18.00
753473,19.00
753489,19.00
753505,1024.00
753521,1024.00
753536,1024.00
753552,1024.00
753568,1024.00
753584,942.00
753600,869.00
753615,812.00
753631,754.00
753647,724.00
753663,777.00
753679,1024.00
753695,1020.00
753710,919.00
753726,453.00
753742,592.00
753758,614.00
753774,729.00
753790,742.00
753805,763.00
753821,725.00
753837,522.00
753853,837.00
753869,868.00
753884,960.00
753939,598.00
753950,579.00
753960,559.00
753970,511.00
753980,582.00
753990,589.00
754000,593.00
754037,601.00
754047,612.00
754057,642.00
754067,648.00
754077,691.00
754090,712.00
754106,735.00
754122,736.00
754138,1024.00
754153,1024.00
754310,358.00
754321,380.00
754331,322.00
754341,333.00
754351,356.00
754361,342.00
754371,324.00
754381,240.00
754391,234.00
754401,268.00
754411,208.00
754421,284.00
754431,284.00
754442,319.00
754453,283.00
754463,234.00
754473,322.00
754483,307.00
754494,355.00
754504,472.00
754515,492.00
754525,579.00
754536,560.00
754547,558.00
754557,544.00
754568,492.00
754581,471.00
754596,576.00
754612,844.00
754628,212.00
754644,39.00
754660,108.00
754676,253.00
754691,246.00
754707,286.00
754723,320.00
754739,343.00
754755,421.00
754770,489.00
754786,628.00
754802,718.00
754818,745.00
754834,744.00
754850,576.00
754865,209.00
754881,508.00
754897,822.00
754913,927.00
754929,1024.00
754945,1024.00
754960,1000.00
754976,780.00
754992,417.00
755008,356.00
755024,206.00
755039,182.00
755055,374.00
755071,590.00
755087,212.00
755103,18.00
755119,98.00
755134,228.00
755150,129.00
755166,46.00
755182,19.00
755198,16.00
755213,18.00
755229,16.00
755245,18.00
755261,16.00
755277,17.00
755293,545.00
755308,934.00
755324,862.00
755340,925.00
755356,865.00
755372,910.00
755387,834.00
755403,819.00
755419,800.00
755435,780.00
755451,762.00
755467,553.00
755482,529.00
755498,17.00
755514,22.00
755530,18.00
755546,20.00
755562,19.00
755577,18.00
755593,17.00
755609,20.00
755625,31.00
755641,908.00
755656,972.00
755672,686.00
755688,348.00
755704,1024.00
755720,1024.00
755736,1024.00
755751,1024.00
755767,1024.00
755783,1024.00
755799,1024.00
755815,1024.00
755830,1024.00
755846,1024.00
755862,1024.00
755878,1024.00
755894,1024.00
755910,1024.00
755925,45.00
755941,19.00
755957,17.00
755973,369.00
755989,326.00
756004,444.00
756020,813.00
756036,973.00
756052,1024.00
756068,1024.00
756084,1024.00
756099,1024.00
756115,1024.00
756131,1024.00
756147,1024.00
756163,1024.00
756178,1024.00
756194,1024.00
756210,1024.00
756226,1024.00
756242,1024.00
756258,1024.00
756273,1024.00
756289,723.00
756305,688.00
756321,788.00
756337,812.00
756352,737.00
756368,1024.00
756384,1024.00
756400,929.00
756416,932.00
756432,241.00
756447,16.00
756463,17.00
756479,17.00
756495,15.00
756511,14.00
756527,17.00
756542,16.00
756558,14.00
756574,18.00
756590,17.00
756606,17.00
756621,20.00
756637,20.00
756653,16.00
756669,16.00
756722,498.00
756732,798.00
756742,783.00
756752,805.00
756762,869.00
756772,735.00
756782,752.00
756795,565.00
756841,632.00
756852,744.00
756862,922.00
756872,1024.00
756882,1024.00
756892,868.00
756906,631.00
756922,814.00
756938,1004.00
757001,991.00
757012,1020.00
757022,1008.00
757032,989.00
757042,989.00
757052,920.00
757062,892.00
757072,897.00
757084,890.00
757096,773.00
757112,649.00
757128,382.00
757143,232.00
757159,160.00
757175,186.00
757191,252.00
757207,243.00
757223,181.00
757238,284.00
757254,1024.00
757270,1024.00
757286,1024.00
757302,1024.00
757317,462.00
757333,17.00
757349,20.00
757365,19.00
757381,18.00
757397,17.00
757412,19.00
757428,318.00
757444,876.00
757460,750.00
757476,682.00
757492,454.00
757507,196.00
757523,140.00
757539,75.00
757555,103.00
757571,178.00
757586,236.00
757602,358.00
757618,462.00
757634,595.00
757650,560.00
757666,715.00
757681,672.00
757697,658.00
757713,654.00
757729,825.00
757745,1024.00
757761,1024.00
757776,723.00
757792,774.00
757808,987.00
757824,989.00
757840,712.00
757855,373.00
757871,16.00
757887,15.00
757903,14.00
757919,15.00
757935,17.00
757950,15.00
757966,19.00
757982,16.00
757998,17.00
758014,17.00
758029,15.00
758045,19.00
758061,19.00
758077,19.00
758093,17.00
758109,19.00
758124,16.00
758140,1024.00
758156,1024.00
758172,1024.00
758188,1024.00
758203,1024.00
758219,1024.00
758235,1024.00
758251,1024.00
758267,1024.00
758283,1024.00
758298,1024.00
758314,1024.00
758330,1024.00
758346,1024.00
758362,1024.00
758377,1024.00
758393,1024.00
758409,1024.00
758425,1024.00
758441,1024.00
758457,558.00
758472,1024.00
758488,1024.00
758504,1024.00
758520,1024.00
758536,1024.00
758552,1024.00
758567,597.00
758583,291.00
758599,456.00
758615,821.00
758631,1024.00
758646,445.00
758662,16.00
758678,20.00
758694,19.00
758710,16.00
758726,16.00
758741,18.00
758757,18.00
758773,19.00
758789,18.00
758805,18.00
758821,17.00
758836,15.00
758852,1005.00
758868,1024.00
758884,1024.00
758900,1024.00
758915,1024.00
758931,1024.00
758947,1024.00
758963,1024.00
758979,1024.00
758995,1024.00
759010,1024.00
759026,1024.00
759042,1024.00
759058,1024.00
759074,1024.00
759089,1024.00
759105,657.00
759121,760.00
759137,836.00
759153,799.00
759169,818.00
759184,824.00
759200,762.00
759216,820.00
759232,907.00
759305,38.00
759316,18.00
759326,17.00
759336,16.00
759346,20.00
759356,19.00
759366,19.00
759376,19.00
759386,21.00
759396,21.00
759442,21.00
759454,19.00
759465,19.00
759475,20.00
759486,17.00
759497,19.00
759508,21.00
759585,1017.00
759597,1024.00
759607,1024.00
759617,1024.00
759627,1024.00
759637,1024.00
759647,781.00
759657,538.00
759667,636.00
759677,699.00
759687,586.00
759697,532.00
759707,497.00
759722,436.00
759738,392.00
759754,516.00
759770,634.00
759786,677.00
759802,637.00
759817,637.00
759833,506.00
759849,336.00
759865,266.00
759881,17.00
759896,16.00
759912,20.00
759928,237.00
759944,382.00
759960,585.00
759976,1024.00
759991,994.00
760007,975.00
760023,853.00
760039,925.00
760055,918.00
760070,861.00
760086,792.00
760102,661.00
760118,580.00
760134,532.00
760150,175.00
760165,17.00
760181,18.00
760197,18.00
760213,20.00
760229,17.00
760244,16.00
760260,56.00
760276,675.00
760292,1010.00
760308,1024.00
760324,1024.00
760339,1024.00
760355,1024.00
760371,1024.00
760387,1024.00
760403,1024.00
760418,1024.00
760434,1024.00
760450,1024.00
760466,1024.00
760482,1024.00
760498,1024.00
760513,1024.00
760529,1024.00
760545,1024.00
760561,817.00
760577,811.00
760593,644.00
760608,737.00
760624,777.00
760640,1024.00
760656,1024.00
760671,1024.00
760687,753.00
760703,512.00
760719,321.00
760735,231.00
760751,172.00
760766,51.00
760782,265.00
760798,21.00
760814,18.00
760830,19.00
760846,20.00
760861,20.00
760877,19.00
760893,20.00
760909,18.00
760925,20.00
760941,18.00
760956,978.00
760972,946.00
760988,1002.00
761004,1024.00
761020,1024.00
761035,1017.00
761051,558.00
761067,336.00
761083,306.00
761099,297.00
761115,304.00
761130,245.00
761146,178.00
761162,237.00
761178,280.00
761194,629.00
761209,900.00
761224,310.00
761241,208.00
761257,225.00
761273,270.00
761289,224.00
761304,110.00
761320,293.00
761336,532.00
761352,882.00
761368,1024.00
761383,1024.00
761399,1024.00
761415,950.00
761431,790.00
761447,622.00
761463,548.00
761478,405.00
761494,240.00
761510,269.00
761526,170.00
761542,16.00
761557,17.00
761573,17.00
761589,18.00
761605,199.00
761621,676.00
761637,19.00
761652,17.00
761668,106.00
761684,212.00
761700,447.00
761715,701.00
761731,933.00
761747,630.00
761763,600.00
761779,724.00
761795,751.00
761811,650.00
761826,603.00
761842,590.00
761858,624.00
761874,650.00
761890,772.00
761968,525.00
761979,807.00
761989,993.00
761999,990.00
762009,606.00
762019,606.00
762029,894.00
762039,1024.00
762049,941.00
762059,549.00
762069,557.00
762080,608.00
762095,568.00
762112,534.00
762181,17.00
762192,30.00
762202,98.00
762212,120.00
762222,176.00
762232,145.00
762242,18.00
762252,19.00
762262,20.00
762272,21.00
762285,18.00
762301,18.00
762402,873.00
762413,608.00
762423,519.00
762433,481.00
762444,607.00
762455,924.00
762466,848.00
762476,436.00
762486,333.00
762496,369.00
762506,405.00
762516,460.00
762526,501.00
762537,523.00
762547,624.00
762557,625.00
762570,662.00
762586,745.00
762602,672.00
762617,589.00
762633,638.00
762649,284.00
762665,17.00
762681,20.00
762697,442.00
762712,800.00
762728,1024.00
762744,1024.00
762760,1024.00
762776,1024.00
762791,1024.00
762807,1024.00
762823,925.00
762839,460.00
762855,330.00
762871,415.00
762886,237.00
762902,17.00
762918,19.00
762934,18.00
762950,20.00
762965,19.00
762981,19.00
762997,17.00
763013,16.00
763029,20.00
763045,840.00
763060,741.00
763076,724.00
763092,660.00
763108,739.00
763124,789.00
763139,813.00
763155,818.00
763171,840.00
763187,876.00
763203,797.00
763219,852.00
763234,901.00
763250,745.00
763266,363.00
763282,513.00
763298,93.00
763313,18.00
763329,19.00
763345,1024.00
763361,1024.00
763377,1024.00
763393,1024.00
763408,884.00
763424,698.00
763440,691.00
763456,608.00
763472,353.00
763488,183.00
763503,81.00
763519,18.00
763535,19.00
763551,20.00
763567,19.00
763582,17.00
763598,21.00
763614,16.00
763630,20.00
763646,20.00
763662,693.00
763677,1024.00
763693,1024.00
763709,1024.00
763725,1024.00
763741,1024.00
763756,986.00
763772,912.00
763788,968.00
763804,926.00
763820,836.00
763836,796.00
763851,811.00
763867,725.00
763883,520.00
763899,312.00
763915,234.00
763930,339.00
763946,406.00
763962,453.00
763978,718.00
763994,972.00
764010,1024.00
764025,1024.00
764041,1024.00
764057,1024.00
764073,978.00
764089,1010.00
764104,1024.00
764120,614.00
764136,109.00
764152,100.00
764168,233.00
764184,856.00
764199,1024.00
764215,1024.00
764231,1024.00
764247,1024.00
764263,1024.00
764279,1024.00
764294,1024.00
764310,1024.00
764326,1024.00
764342,1024.00
764358,1024.00
764373,1024.00
764389,1024.00
764405,1024.00
764421,1012.00
764437,673.00
764453,624.00
764468,320.00
764484,140.00
764500,700.00
764516,1024.00
764602,16.00
764614,19.00
764624,70.00
764634,29.00
764644,17.00
764654,17.00
764664,19.00
764674,18.00
764684,158.00
764694,141.00
764704,86.00
764714,65.00
764724,19.00
764737,26.00
764753,18.00
764769,18.00
764785,28.00
764833,19.00
764844,20.00
764854,19.00
764864,20.00
764874,19.00
764884,16.00
764896,18.00
764911,232.00
764927,690.00
764943,1024.00
764959,1024.00
764975,1024.00
764990,1024.00
765006,672.00
765022,538.00
765038,585.00
765054,641.00
765070,718.00
765085,708.00
765101,762.00
765117,852.00
765133,1000.00
765149,1024.00
765164,966.00
765180,688.00
765196,504.00
765212,430.00
765228,661.00
765244,1024.00
765259,1024.00
765275,1024.00
765291,1024.00
765307,1024.00
765323,1024.00
765523,789.00
765536,783.00
765546,715.00
765556,944.00
765569,1024.00
765580,1024.00
765590,1024.00
765601,1024.00
765611,1024.00
765621,1024.00
765631,1024.00
765641,608.00
765651,672.00
765661,853.00
765671,999.00
765681,1024.00
765691,1024.00
765701,1024.00
765711,1024.00
765721,1024.00
765731,1024.00
765741,682.00
765751,93.00
765761,102.00
765771,202.00
765781,232.00
765791,163.00
765801,183.00
765811,165.00
765821,20.00
765831,18.00
765841,18.00
765851,16.00
765861,16.00
765876,19.00
765892,86.00
765908,489.00
765924,597.00
765940,1024.00
765955,650.00
765971,417.00
765987,379.00
766003,332.00
766019,181.00
766035,31.00
766050,20.00
766066,18.00
766082,20.00
766098,20.00
766114,20.00
766130,24.00
766145,17.00
766161,19.00
766177,20.00
766193,18.00
766209,18.00
766224,20.00
766240,20.00
766256,614.00
766272,319.00
766288,272.00
766304,372.00
766319,51.00
766335,19.00
766351,17.00
766367,104.00
766383,554.00
766399,662.00
766414,742.00
766430,580.00
766446,254.00
766462,49.00
766478,162.00
766493,486.00
766509,633.00
766525,103.00
766541,654.00
766557,977.00
766573,1024.00
766588,1024.00
766604,1024.00
766620,1024.00
766636,1024.00
766652,1024.00
766668,1024.00
766683,1024.00
766699,632.00
766715,21.00
766731,629.00
766747,819.00
766762,1004.00
766778,1024.00
766794,1024.00
766810,545.00
766826,672.00
766842,1024.00
766857,632.00
766873,1024.00
766889,1024.00
766905,1024.00
766921,1024.00
766936,1024.00
766952,1024.00
766968,1024.00
766984,1024.00
767000,595.00
767016,552.00
767031,376.00
767047,305.00
767063,352.00
767079,132.00
767095,20.00
767111,18.00
767126,19.00
767142,61.00
767158,451.00
767174,639.00
767190,1024.00
767205,1024.00
767221,1024.00
767237,1024.00
767253,1024.00
767269,1024.00
767285,747.00
767300,120.00
767316,21.00
767332,688.00
767348,510.00
767364,322.00
767379,459.00
767395,579.00
767411,686.00
767427,765.00
767443,859.00
767459,866.00
767474,1024.00
767490,1024.00
767506,848.00
767522,381.00
767538,612.00
767553,380.00
767569,19.00
767585,19.00
767601,18.00
767617,18.00
767633,18.00
767648,16.00
767664,17.00
767680,17.00
767696,19.00
767712,16.00
767727,18.00
767743,20.00
767759,17.00
767775,77.00
767791,677.00
767808,1024.00
767822,1024.00
767838,1024.00
767854,1024.00
767870,1024.00
767945,18.00
767956,16.00
767966,361.00
767976,520.00
767986,700.00
768036,1024.00
768047,1024.00
768057,1024.00
768067,1024.00
768077,586.00
768087,144.00
768097,1024.00
768107,1024.00
768117,1024.00
768127,1024.00
768137,1024.00
768226,1024.00
768236,1012.00
768246,510.00
768256,517.00
768266,285.00
768276,17.00
768286,19.00
768297,17.00
768307,17.00
768318,16.00
768328,16.00
768338,333.00
768348,825.00
768358,1024.00
768368,1024.00
768378,1024.00
768392,1024.00
768408,1024.00
768424,1024.00
768439,1024.00
768455,1024.00
768471,1024.00
768487,1024.00
768503,902.00
768519,219.00
768534,103.00
768550,511.00
768566,519.00
768582,1024.00
768598,817.00
768613,199.00
768629,268.00
768645,380.00
768661,1024.00
768677,1024.00
768693,1024.00
768708,1024.00
768724,1024.00
768740,1024.00
768756,1024.00
768772,223.00
768787,19.00
768803,189.00
768819,730.00
768835,157.00
768851,17.00
768867,15.00
768882,18.00
768898,16.00
768914,19.00
768930,93.00
768946,998.00
768961,1014.00
768977,1024.00
768993,1024.00
769009,675.00
769025,553.00
769041,499.00
769056,241.00
769072,20.00
769088,17.00
769104,16.00
769120,15.00
769135,17.00
769151,19.00
769167,20.00
769183,20.00
769199,20.00
769215,17.00
769230,21.00
769246,19.00
769262,146.00
769278,1024.00
769294,1024.00
769310,1024.00
769325,1024.00
769341,1024.00
769357,1024.00
769373,271.00
769389,261.00
769404,185.00
769420,209.00
769436,230.00
769452,124.00
769468,18.00
769484,15.00
769499,18.00
769515,19.00
769531,16.00
769547,317.00
769563,1024.00
769578,1024.00
769594,1024.00
769610,1024.00
769626,1024.00
769642,1024.00
769658,1024.00
769673,1024.00
769689,525.00
769705,144.00
769721,617.00
769737,1024.00
769752,1024.00
769768,1024.00
769784,1024.00
769800,280.00
769816,1024.00
769832,357.00
769847,1024.00
769863,1024.00
769879,1024.00
769895,1024.00
769911,1024.00
769927,1024.00
769942,1024.00
769958,1024.00
769974,968.00
769990,557.00
770006,682.00
770021,494.00
770037,82.00
770053,19.00
770069,19.00
770085,17.00
770101,16.00
770116,18.00
770132,16.00
770148,468.00
770164,835.00
770180,836.00
770195,653.00
770211,793.00
770227,680.00
770243,399.00
770259,353.00
770275,166.00
770290,19.00
770306,21.00
770322,511.00
770338,381.00
770354,308.00
770370,17.00
770418,1024.00
770429,1024.00
770440,1024.00
770451,1024.00
770462,1024.00
770472,1024.00
770526,706.00
770538,675.00
770548,774.00
770559,693.00
770570,655.00
770580,617.00
770590,617.00
770600,641.00
770610,452.00
770623,312.00
770639,20.00
770654,17.00
770729,349.00
770740,1024.00
770750,1024.00
770760,1024.00
770770,1024.00
770780,1024.00
770790,953.00
770800,789.00
770810,716.00
770820,546.00
770830,416.00
770844,352.00
770860,295.00
770876,22.00
770892,17.00
770907,17.00
770923,22.00
770939,20.00
770955,21.00
770971,18.00
770987,18.00
771002,19.00
771018,18.00
771034,1024.00
771050,1024.00
771066,1024.00
771081,1024.00
771097,1024.00
771113,1024.00
771129,790.00
771145,664.00
771161,658.00
771176,650.00
771192,618.00
771208,309.00
771224,18.00
771240,16.00
771255,17.00
771271,54.00
771287,158.00
771303,675.00
771319,857.00
771335,1024.00
771350,1024.00
771366,1024.00
771382,1024.00
771398,811.00
771414,630.00
771430,825.00
771445,423.00
771461,20.00
771477,18.00
771493,17.00
771509,19.00
771524,18.00
771540,339.00
771556,919.00
771572,1024.00
771588,1024.00
771604,1024.00
771619,1024.00
771635,1024.00
771651,1024.00
771667,1024.00
771683,1024.00
771698,1024.00
771714,1010.00
771730,326.00
771746,339.00
771762,366.00
771778,356.00
771793,480.00
771809,162.00
771825,18.00
771841,19.00
771857,306.00
771872,867.00
771888,987.00
771904,1024.00
771920,1024.00
771936,1024.00
771951,1024.00
771967,984.00
771983,773.00
771999,606.00
772015,199.00
772031,17.00
772046,19.00
772062,21.00
772078,90.00
772094,21.00
772110,18.00
772126,20.00
772141,18.00
772157,17.00
772173,1024.00
772189,1024.00
772205,1024.00
772220,1024.00
772236,1024.00
772252,1024.00
772268,1024.00
772284,1024.00
772300,1024.00
772315,16.00
772331,17.00
772347,18.00
772363,19.00
772379,16.00
772394,16.00
772410,19.00
772426,348.00
772442,573.00
772458,748.00
772474,1024.00
772489,1024.00
772505,1024.00
772521,1024.00
772537,1024.00
772553,1024.00
772569,830.00
772584,97.00
772600,282.00
772616,229.00
772632,108.00
772648,173.00
772663,392.00
772679,18.00
772695,18.00
772711,19.00
772727,17.00
772743,135.00
772758,1024.00
772774,1024.00
772790,1024.00
772806,1024.00
772822,1024.00
772838,1024.00
772853,19.00
772869,16.00
772885,17.00
772901,19.00
772917,19.00
772985,18.00
772996,16.00
773006,16.00
773016,20.00
773026,19.00
773036,16.00
773046,187.00
773056,879.00
773066,1024.00
773076,1024.00
773091,1024.00
773106,1024.00
773122,1024.00
773138,1024.00
773154,1024.00
773170,781.00
773186,362.00
773201,1024.00
773217,1024.00
773233,1024.00
773249,1024.00
773265,700.00
773280,893.00
773296,1024.00
773371,1024.00
773382,1024.00
773392,1024.00
773402,1024.00
773412,1024.00
773422,1024.00
773432,1024.00
773443,1024.00
773453,1024.00
773463,850.00
773473,19.00
773486,17.00
773502,20.00
773518,16.00
773534,16.00
773549,18.00
773565,17.00
773581,17.00
773997,14.00
774009,17.00
774019,18.00
774029,20.00
774039,22.00
774049,19.00
774062,18.00
774073,19.00
774083,19.00
774093,20.00
774103,19.00
774113,16.00
774123,19.00
774133,18.00
774143,16.00
774153,16.00
774163,17.00
774173,89.00
774183,698.00
774193,1024.00
774203,1024.00
774213,1024.00
774223,1024.00
774233,1024.00
774243,1024.00
774253,1024.00
774263,1024.00
774273,1024.00
774283,1024.00
774293,1024.00
774303,1024.00
774313,909.00
774323,484.00
774333,228.00
774343,495.00
774353,193.00
774363,18.00
774373,20.00
774383,18.00
774393,20.00
774403,21.00
774413,20.00
774423,17.00
774433,20.00
774443,20.00
774453,21.00
774464,152.00
774474,288.00
774484,320.00
774495,1024.00
774506,1024.00
774516,1024.00
774526,1024.00
774536,1024.00
774546,1024.00
774562,1024.00
774578,1024.00
774594,1024.00
774609,19.00
774625,18.00
774641,20.00
774657,18.00
774673,17.00
774689,18.00
774704,18.00
774720,17.00
774736,17.00
774752,20.00
774767,18.00
774783,1024.00
774799,1024.00
774815,1024.00
774831,1024.00
774847,1024.00
774862,1024.00
774878,1024.00
774894,872.00
774910,18.00
774926,18.00
774942,469.00
774957,1024.00
774973,1024.00
774989,938.00
775005,17.00
775021,19.00
775037,18.00
775052,120.00
775068,1024.00
775084,1024.00
775100,1024.00
775116,1024.00
775131,1024.00
775147,941.00
775163,332.00
775179,17.00
775195,18.00
775211,17.00
775226,16.00
775242,17.00
775258,15.00
775274,19.00
775290,20.00
775306,18.00
775321,1024.00
775337,1024.00
775353,1024.00
775369,1024.00
775385,1024.00
775400,1024.00
775416,1024.00
775432,1024.00
775448,1024.00
775464,722.00
775480,451.00
775495,76.00
775511,18.00
775527,46.00
775543,1018.00
775559,1024.00
775575,185.00
775590,115.00
775606,256.00
775622,452.00
775638,293.00
775654,1024.00
775669,1024.00
775685,1024.00
775701,1024.00
775717,763.00
775733,16.00
775749,18.00
775764,17.00
775780,22.00
775796,19.00
775812,20.00
775828,19.00
775843,19.00
775859,16.00
775875,17.00
775891,20.00
775907,17.00
775923,17.00
775938,706.00
775954,1024.00
775970,1024.00
775986,1024.00
776002,1024.00
776017,1024.00
776033,1024.00
776049,1024.00
776065,208.00
776081,458.00
776097,567.00
776112,1024.00
776128,1024.00
776144,1024.00
776160,17.00
776176,18.00
776191,17.00
776207,17.00
776223,19.00
776239,480.00
776255,1024.00
776271,1024.00
776286,1024.00
776302,1024.00
776318,1024.00
776373,16.00
776384,18.00
776394,21.00
776404,19.00
776414,19.00
776424,19.00
776435,17.00
776446,17.00
776460,117.00
776476,739.00
776492,317.00
776508,870.00
776575,1024.00
776588,1024.00
776599,1024.00
776609,1024.00
776619,1024.00
776629,1024.00
776639,992.00
776752,403.00
776763,16.00
776773,19.00
776783,19.00
776793,19.00
776803,19.00
776813,253.00
776824,1024.00
776835,1024.00
776845,1024.00
776855,1024.00
776865,1024.00
776875,1024.00
776885,1024.00
776895,1024.00
776905,369.00
776915,16.00
776925,20.00
776935,17.00
776945,19.00
776955,16.00
776967,17.00
776982,19.00
776998,19.00
777014,17.00
777030,17.00
777046,17.00
777062,19.00
777077,16.00
777092,21.00
777109,74.00
777125,1024.00
777141,1024.00
777156,1024.00
777172,1024.00
777188,1024.00
777204,1024.00
777220,74.00
777236,18.00
777251,16.00
777267,901.00
777283,1024.00
777299,99.00
777315,20.00
777330,17.00
777346,19.00
777362,1024.00
777378,609.00
777394,1024.00
777410,1024.00
777425,1024.00
777441,1024.00
777457,1024.00
777473,1024.00
777489,391.00
777505,197.00
777520,265.00
777536,512.00
777552,19.00
777568,17.00
777584,19.00
777599,111.00
777614,174.00
777631,504.00
777647,1024.00
777663,1024.00
777679,1024.00
777694,1024.00
777710,1024.00
777726,1024.00
777742,1024.00
777758,1024.00
777773,890.00
777789,325.00
777805,19.00
777821,19.00
777837,17.00
777853,16.00
777868,15.00
777884,18.00
777900,17.00
777916,16.00
777932,17.00
777947,74.00
777963,185.00
777979,764.00
777995,866.00
778011,1024.00
778027,1024.00
778042,1024.00
778058,1024.00
778074,120.00
778090,20.00
778106,17.00
778121,15.00
778137,19.00
778153,16.00
778169,17.00
778185,16.00
778201,336.00
778216,1024.00
778232,1024.00
778248,821.00
778264,1006.00
778280,1024.00
778296,1024.00
778311,1024.00
778327,1024.00
778343,1013.00
778359,593.00
778375,84.00
778390,19.00
778406,19.00
778422,20.00
778438,150.00
778454,21.00
778470,17.00
778484,20.00
778501,509.00
778517,633.00
778533,1006.00
778548,1024.00
778564,1024.00
778580,1024.00
778596,1024.00
778612,18.00
778628,18.00
778643,17.00
778659,20.00
778675,16.00
778691,19.00
778707,69.00
778723,22.00
778738,207.00
778754,115.00
778770,197.00
778786,470.00
778802,774.00
778817,1024.00
778833,1024.00
778849,1024.00
778865,1024.00
778881,1024.00
778897,1024.00
778912,1024.00
778928,1024.00
778944,17.00
778960,22.00
778976,17.00
779027,16.00
779038,19.00
779048,18.00
779058,21.00
779068,19.00
779078,18.00
779088,15.00
779102,153.00
779118,1024.00
779162,1024.00
779173,1024.00
779183,1024.00
779193,1024.00
779203,417.00
779213,17.00
779229,19.00
779245,382.00
779260,697.00
779276,17.00
779292,19.00
779308,18.00
779324,19.00
779340,19.00
779355,17.00
779371,868.00
779387,1024.00
779403,1024.00
779419,1024.00
779435,1024.00
779450,1024.00
779466,1024.00
779482,1024.00
779498,1024.00
779514,18.00
779529,16.00
779545,18.00
779649,19.00
779661,17.00
779671,535.00
779681,1024.00
779691,1024.00
779701,1024.00
779711,1024.00
779721,1024.00
779731,1024.00
779741,1024.00
779751,1018.00
779761,18.00
779771,19.00
779781,17.00
779791,16.00
779801,18.00
779814,18.00
779830,15.00
779846,18.00
779862,17.00
779878,17.00
779893,16.00
779909,18.00
779925,19.00
779941,19.00
779957,1024.00
779972,450.00
779988,502.00
780004,1024.00
780020,1024.00
780036,1024.00
780052,834.00
780067,457.00
780083,19.00
780099,16.00
780115,19.00
780131,19.00
780146,18.00
780162,17.00
780178,19.00
780195,19.00
780210,21.00
780226,19.00
780243,1024.00
780256,1024.00
780273,1024.00
780289,1024.00
780305,1024.00
780320,1024.00
780336,946.00
780352,18.00
780368,17.00
780383,17.00
780400,20.00
780415,17.00
780431,19.00
780447,18.00
780463,17.00
780479,19.00
780494,16.00
780510,806.00
780526,1024.00
780542,1024.00
780558,1024.00
780574,1024.00
780589,1024.00
780605,1024.00
780621,1024.00
780637,1024.00
780653,1024.00
780668,17.00
780684,19.00
780700,19.00
780716,18.00
780732,19.00
780748,17.00
780763,18.00
780779,20.00
780795,18.00
780811,958.00
780827,1024.00
780842,1024.00
780857,1024.00
780874,1024.00
780890,1024.00
780906,1024.00
780922,464.00
780937,18.00
780953,19.00
780969,16.00
780985,16.00
781001,16.00
781016,17.00
781032,19.00
781048,18.00
781064,81.00
781080,1024.00
781096,1024.00
781111,1024.00
781127,1024.00
781143,1024.00
781159,1024.00
781175,1024.00
781190,1024.00
781206,1024.00
781222,21.00
781238,17.00
781254,16.00
781270,16.00
781285,19.00
781301,17.00
781317,18.00
781333,19.00
781349,20.00
781364,21.00
781380,18.00
781396,631.00
781412,1024.00
781428,1024.00
781444,1024.00
781459,1024.00
781475,1024.00
781491,1024.00
781507,19.00
781523,17.00
781538,16.00
781554,20.00
781570,17.00
781586,19.00
781602,19.00
781618,16.00
781633,16.00
781649,18.00
781665,16.00
781681,870.00
781697,1024.00
781713,1024.00
781728,1024.00
781744,1024.00
781760,1024.00
781776,1024.00
781792,1024.00
781807,1024.00
781823,18.00
781839,17.00
781855,16.00
781871,18.00
781887,16.00
781902,19.00
781918,17.00
781934,18.00
781950,19.00
781966,19.00
781982,1024.00
781997,1024.00
782013,1024.00
782029,1024.00
782045,1024.00
782061,1024.00
782076,574.00
782092,17.00
782108,19.00
782124,17.00
782140,20.00
782156,19.00
782171,19.00
782186,17.00
782203,18.00
782219,20.00
782235,505.00
782250,355.00
782266,612.00
782282,739.00
782298,906.00
782314,975.00
782330,1024.00
782345,1024.00
782361,1024.00
782377,1024.00
782505,150.00
782518,157.00
782529,220.00
782539,379.00
782550,396.00
782616,1024.00
782627,1024.00
782637,1024.00
782647,1024.00
782657,1024.00
782758,19.00
782769,16.00
782779,18.00
782789,21.00
782800,20.00
782810,17.00
782820,16.00
782830,16.00
782841,17.00
782852,219.00
782862,900.00
782872,1024.00
782882,1024.00
782892,1024.00
782902,1024.00
782912,1024.00
782922,1024.00
782932,1024.00
782942,1024.00
782952,1024.00
782962,1024.00
782972,1024.00
782982,1024.00
782992,804.00
783002,236.00
783012,17.00
783022,18.00
783032,19.00
783042,295.00
783052,1024.00
783062,1024.00
783072,1024.00
783082,1024.00
783092,1024.00
783102,432.00
783112,17.00
783122,16.00
783136,14.00
783152,17.00
783168,17.00
783184,20.00
783200,1024.00
783215,1024.00
783231,1024.00
783247,1024.00
783263,1024.00
783279,55.00
783295,208.00
783310,21.00
783326,17.00
783342,19.00
783358,19.00
783374,19.00
783389,233.00
783405,21.00
783421,19.00
783437,20.00
783453,243.00
783469,436.00
783484,798.00
783500,1024.00
783516,1024.00
783532,1024.00
783548,1024.00
783563,1024.00
783579,1024.00
783595,1024.00
783611,746.00
783627,400.00
783643,169.00
783658,17.00
783674,20.00
783690,19.00
783706,20.00
783722,33.00
783737,836.00
783752,1024.00
783769,1024.00
783785,1024.00
783801,1024.00
783817,1024.00
783832,1024.00
783848,1024.00
783864,1024.00
783880,1024.00
783896,1024.00
783911,456.00
783927,223.00
783943,70.00
783959,19.00
783975,19.00
783991,16.00
784006,17.00
784022,17.00
784038,18.00
784054,17.00
784070,18.00
784085,22.00
784101,22.00
784117,1024.00
784133,1024.00
784149,1024.00
784165,749.00
784180,832.00
784196,565.00
784212,294.00
784228,124.00
784244,18.00
784260,17.00
784275,18.00
784291,19.00
784307,18.00
784323,17.00
784339,18.00
784354,18.00
784370,19.00
784386,16.00
784402,1024.00
784418,1024.00
784434,1024.00
784449,1024.00
784465,1024.00
784481,1024.00
784497,1024.00
784513,396.00
784528,19.00
784544,20.00
784560,16.00
784576,19.00
784592,21.00
784608,19.00
784623,16.00
784639,18.00
784655,79.00
784671,124.00
784686,234.00
784702,644.00
784718,1024.00
784734,1024.00
784750,1024.00
784766,1024.00
784782,1024.00
784797,1024.00
784813,907.00
784829,298.00
784845,98.00
784861,43.00
784876,867.00
784892,1024.00
784908,1024.00
785008,1024.00
785018,1024.00
785028,1024.00
785038,1024.00
785048,1024.00
785058,1024.00
785068,561.00
785078,486.00
785088,159.00
785098,21.00
785108,17.00
785118,21.00
785172,17.00
785182,20.00
785192,19.00
785202,18.00
785212,18.00
785341,1024.00
785352,1024.00
785362,1024.00
785372,1024.00
785382,1024.00
785392,1024.00
785402,1024.00
785412,1024.00
785423,1024.00
785433,1024.00
785443,496.00
785454,187.00
785465,58.00
785475,20.00
785485,20.00
785495,20.00
785505,17.00
785515,18.00
785525,18.00
785535,18.00
785545,19.00
785555,18.00
785565,20.00
785575,246.00
785585,328.00
785595,308.00
785605,365.00
785620,530.00
785636,1024.00
785652,1024.00
785668,1024.00
785683,1024.00
785699,1024.00
785715,1024.00
785731,20.00
785747,17.00
785763,17.00
785777,19.00
785794,20.00
785810,20.00
785826,19.00
785842,19.00
785857,17.00
785873,17.00
785889,17.00
785905,298.00
785921,1024.00
785937,1024.00
785952,1024.00
785968,1024.00
785984,1024.00
786000,1024.00
786016,1024.00
786031,1024.00
786047,1024.00
786063,708.00
786079,294.00
786095,342.00
786111,272.00
786126,18.00
786142,19.00
786158,19.00
786174,17.00
786190,18.00
786205,17.00
786221,199.00
786237,382.00
786253,1024.00
786269,1024.00
786285,1024.00
786300,1024.00
786316,744.00
786332,544.00
786348,512.00
786364,288.00
786380,224.00
786395,16.00
786411,17.00
786427,171.00
786443,318.00
786459,17.00
786473,16.00
786490,303.00
786506,367.00
786522,442.00
786538,609.00
786554,873.00
786569,1024.00
786585,1024.00
786601,1024.00
786617,1024.00
786632,974.00
786648,640.00
786664,405.00
786680,414.00
786696,217.00
786712,94.00
786727,41.00
786743,21.00
786759,289.00
786775,381.00
786791,19.00
786807,21.00
786822,261.00
786838,350.00
786854,297.00
786870,603.00
786886,668.00
786901,698.00
786917,789.00
786933,688.00
786949,520.00
786965,1024.00
786981,19.00
786996,18.00
787012,19.00
787028,19.00
787044,18.00
787060,16.00
787076,89.00
787091,372.00
787107,648.00
787123,94.00
787139,400.00
787155,825.00
787170,1024.00
787186,1024.00
787202,1024.00
787218,1024.00
787234,1024.00
787250,1024.00
787265,1024.00
787281,1024.00
787297,870.00
787313,675.00
787329,557.00
787344,342.00
787360,358.00
787376,212.00
787392,301.00
787408,252.00
787424,207.00
787439,764.00
787455,367.00
787471,142.00
787519,1024.00
787531,1024.00
787542,1024.00
787553,1024.00
787564,943.00
787575,621.00
787585,529.00
787598,504.00
787722,22.00
787733,17.00
787743,16.00
787753,19.00
787763,576.00
787773,1024.00
787783,1024.00
787793,1024.00
787803,1024.00
787813,1024.00
787823,1024.00
787886,663.00
787896,394.00
787906,229.00
787916,291.00
787926,270.00
787936,17.00
787947,19.00
787957,19.00
787967,18.00
787977,18.00
787988,18.00
787999,18.00
788009,18.00
788019,18.00
788029,21.00
788039,19.00
788049,16.00
788059,17.00
788072,127.00
788088,474.00
788104,1024.00
788120,1024.00
788135,624.00
788151,459.00
788167,800.00
788183,858.00
788199,370.00
788215,19.00
788230,16.00
788246,18.00
788262,19.00
788278,21.00
788293,20.00
788309,237.00
788325,317.00
788341,462.00
788357,404.00
788373,696.00
788389,1024.00
788404,1024.00
788420,1024.00
788436,1024.00
788452,1024.00
788468,1024.00
788484,1024.00
788499,437.00
788515,339.00
788531,194.00
788547,126.00
788563,49.00
788578,58.00
788594,40.00
788610,196.00
788626,204.00
788642,228.00
788658,246.00
788673,336.00
788689,389.00
788705,979.00
788721,906.00
788737,931.00
788752,1024.00
788768,457.00
788784,750.00
788800,18.00
788816,20.00
788832,18.00
788847,16.00
788863,18.00
788879,18.00
788895,20.00
788911,20.00
788927,399.00
788942,373.00
788958,427.00
788974,852.00
788990,1024.00
789006,1024.00
789021,1024.00
789037,1024.00
789053,1024.00
789069,1024.00
789085,1024.00
789101,1024.00
789116,1024.00
789132,126.00
789148,17.00
789164,17.00
789180,16.00
789195,16.00
789211,20.00
789227,19.00
789243,20.00
789259,17.00
789275,184.00
789290,441.00
789306,733.00
789322,915.00
789338,994.00
789354,801.00
789370,546.00
789385,182.00
789401,21.00
789417,19.00
789433,18.00
789449,234.00
789464,19.00
789480,17.00
789496,19.00
789512,19.00
789528,19.00
789544,18.00
789559,81.00
789575,741.00
789591,1024.00
789607,1024.00
789623,1024.00
789639,1024.00
789654,1024.00
789670,1024.00
789686,1024.00
789702,1024.00
789718,1024.00
789733,1024.00
789749,892.00
789765,571.00
789781,912.00
789797,518.00
789813,245.00
789828,375.00
789844,382.00
789860,612.00
789876,552.00
789892,461.00
789908,814.00
789923,735.00
789939,823.00
789955,816.00
789971,501.00
789987,16.00
790002,15.00
790018,16.00
790034,18.00
790050,18.00
790066,16.00
790082,16.00
790097,16.00
790113,19.00
790129,48.00
790145,87.00
790161,387.00
790177,458.00
790192,246.00
790208,546.00
790224,1024.00
790240,1024.00
790303,1024.00
790314,1024.00
790324,1024.00
790334,1024.00
790344,1024.00
790354,860.00
790364,721.00
790374,620.00
790384,549.00
790436,737.00
790447,1022.00
790458,760.00
790469,483.00
790479,414.00
790489,534.00
790500,545.00
790511,1024.00
790525,1024.00
790630,19.00
790642,19.00
790652,18.00
790662,19.00
790672,19.00
790682,16.00
790692,19.00
790702,18.00
790712,20.00
790722,18.00
790732,19.00
790743,18.00
790753,18.00
790763,18.00
790773,16.00
790783,208.00
790793,267.00
790809,837.00
790825,1024.00
790841,1024.00
790857,1024.00
790872,1024.00
790888,1024.00
790904,1024.00
790920,1024.00
790936,1024.00
790952,893.00
790967,622.00
790983,489.00
790999,471.00
791015,553.00
791031,317.00
791046,302.00
791062,259.00
791078,342.00
791094,297.00
791110,740.00
791126,665.00
791141,692.00
791157,1024.00
791173,1024.00
791189,1024.00
791204,19.00
791220,15.00
791236,18.00
791252,15.00
791268,17.00
791284,19.00
791300,16.00
791315,16.00
791331,15.00
791347,149.00
791363,236.00
791379,27.00
791394,280.00
791410,689.00
791426,906.00
791442,1024.00
791458,1024.00
791474,1024.00
791489,1024.00
791505,1024.00
791521,834.00
791537,524.00
791553,175.00
791567,20.00
791584,17.00
791600,54.00
791616,171.00
791632,374.00
791648,364.00
791663,319.00
791679,315.00
791695,459.00
791711,530.00
791727,697.00
791742,832.00
791758,813.00
791774,878.00
791790,872.00
791806,16.00
791822,18.00
791837,18.00
791853,19.00
791869,18.00
791885,18.00
791901,18.00
791917,16.00
791932,16.00
791948,19.00
791964,792.00
791980,960.00
791996,1024.00
792011,1024.00
792027,1024.00
792043,1024.00
792058,1024.00
792075,1024.00
792091,1024.00
792106,1024.00
792122,1024.00
792138,1024.00
792154,687.00
792170,749.00
792185,642.00
792201,345.00
792216,268.00
792233,429.00
792249,473.00
792265,473.00
792280,595.00
792296,564.00
792312,566.00
792328,1012.00
792344,1024.00
792359,1024.00
792375,1024.00
792391,1024.00
792407,1024.00
792423,16.00
792439,17.00
792454,249.00
792470,18.00
792486,18.00
792502,19.00
792518,19.00
792533,15.00
792549,417.00
792565,488.00
792581,508.00
792597,205.00
792613,387.00
792628,666.00
792644,1024.00
792660,1024.00
792676,1024.00
792692,1024.00
792707,1024.00
792723,1024.00
792739,665.00
792755,430.00
792771,569.00
792787,409.00
792802,18.00
792818,18.00
792834,16.00
792850,327.00
792866,400.00
792881,418.00
792921,562.00
792932,459.00
792942,771.00
792952,929.00
792962,842.00
792976,727.00
793041,226.00
793052,33.00
793062,18.00
793072,18.00
793082,19.00
793092,21.00
793102,19.00
793112,20.00
793210,1024.00
793220,1024.00
793230,1024.00
793240,1024.00
793250,1024.00
793260,1024.00
793270,1024.00
793280,1024.00
793290,1024.00
793301,1024.00
793311,1024.00
793321,1024.00
793331,992.00
793341,857.00
793353,697.00
793364,550.00
793374,300.00
793388,134.00
793404,20.00
793419,96.00
793435,701.00
793451,101.00
793467,187.00
793483,313.00
793498,163.00
793514,388.00
793530,313.00
793546,762.00
793562,778.00
793578,837.00
793593,927.00
793609,708.00
793625,993.00
793641,1024.00
793657,221.00
793673,283.00
793688,36.00
793704,90.00
793720,180.00
793736,250.00
793752,606.00
793767,511.00
793783,16.00
793799,17.00
793815,55.00
793831,626.00
793847,985.00
793862,1024.00
793878,1024.00
793894,1024.00
793910,1024.00
793926,1024.00
793941,902.00
793957,370.00
793971,336.00
793989,73.00
794005,16.00
794021,19.00
794036,19.00
794052,19.00
794068,17.00
794084,20.00
794100,44.00
794115,20.00
794131,16.00
794147,477.00
794163,650.00
794179,507.00
794195,686.00
794210,304.00
794226,17.00
794242,15.00
794258,15.00
794274,16.00
794289,15.00
794305,17.00
794321,247.00
794337,377.00
794353,571.00
794369,606.00
794384,795.00
794400,865.00
794416,1024.00
794432,1024.00
794448,1024.00
794463,1024.00
794479,1024.00
794495,1024.00
794511,1024.00
794527,993.00
794543,648.00
794558,626.00
794574,499.00
794589,409.00
794606,460.00
794622,506.00
794637,248.00
794653,320.00
794669,297.00
794685,324.00
794701,187.00
794717,365.00
794732,469.00
794748,1024.00
794764,1024.00
794780,1024.00
794796,1024.00
794811,1024.00
794827,1024.00
794843,1024.00
794859,504.00
794875,15.00
794891,18.00
794906,16.00
794922,16.00
794938,16.00
794954,18.00
794970,15.00
794985,18.00
795001,16.00
795017,16.00
795033,20.00
795049,80.00
795065,1024.00
795080,1024.00
795096,1024.00
795112,1024.00
795128,1024.00
795144,763.00
795160,657.00
795175,512.00
795191,378.00
795207,280.00
795223,262.00
795239,236.00
795254,248.00
795270,324.00
795286,367.00
795302,326.00
795318,493.00
795334,426.00
795349,1024.00
795365,1024.00
795381,1024.00
795397,1024.00
795413,1024.00
795428,1024.00
795444,809.00
795460,44.00
795530,190.00
795542,358.00
795552,462.00
795562,415.00
795572,535.00
795582,764.00
795592,804.00
795602,705.00
795612,721.00
795622,936.00
795634,1024.00
795650,1024.00
795666,1024.00
795682,1024.00
795727,1024.00
795738,1024.00
795748,1024.00
795758,1024.00
795768,1024.00
795778,1024.00
795792,378.00
795808,19.00
795824,18.00
795963,458.00
795974,436.00
795984,608.00
795994,586.00
796004,516.00
796014,444.00
796024,82.00
796035,25.00
796045,67.00
796055,17.00
796065,88.00
796075,238.00
796085,19.00
796095,17.00
796105,17.00
796115,16.00
796125,16.00
796135,18.00
796145,16.00
796155,19.00
796165,129.00
796175,210.00
796188,470.00
796204,233.00
796219,477.00
796235,1024.00
796251,1024.00
796267,1024.00
796283,1024.00
796299,1024.00
796314,1024.00
796330,1024.00
796346,1024.00
796362,1020.00
796378,850.00
796393,1024.00
796409,891.00
796425,324.00
796441,315.00
796457,408.00
796473,370.00
796488,500.00
796504,451.00
796520,619.00
796536,620.00
796551,640.00
796567,734.00
796583,708.00
796599,692.00
796615,501.00
796631,442.00
796647,525.00
796662,338.00
796678,451.00
796694,17.00
796710,19.00
796726,17.00
796741,19.00
796757,19.00
796773,17.00
796789,226.00
796805,378.00
796821,564.00
796836,874.00
796852,775.00
796868,1024.00
796884,1024.00
796900,1024.00
796915,1024.00
796931,1024.00
796947,1021.00
796963,822.00
796979,194.00
796995,17.00
797010,15.00
797026,16.00
797042,18.00
797058,16.00
797074,16.00
797090,17.00
797105,16.00
797121,19.00
797137,16.00
797153,15.00
797169,224.00
797184,225.00
797200,159.00
797216,19.00
797232,18.00
797248,18.00
797264,19.00
797279,17.00
797295,20.00
797310,15.00
797327,30.00
797343,173.00
797358,162.00
797374,712.00
797390,375.00
797406,274.00
797422,1024.00
797437,1024.00
797453,1024.00
797469,1024.00
797485,1024.00
797501,1024.00
797517,1024.00
797532,1024.00
797548,1024.00
797564,1024.00
797580,1024.00
797596,1024.00
797612,1024.00
797627,1024.00
797643,785.00
797659,1024.00
797675,1024.00
797691,1024.00
797706,1024.00
797722,1024.00
797738,1024.00
797754,724.00
797770,612.00
797786,541.00
797801,298.00
797817,17.00
797833,936.00
797849,17.00
797865,19.00
797880,18.00
797896,19.00
797912,26.00
797928,312.00
797944,557.00
797960,442.00
797975,16.00
797991,19.00
798007,17.00
798023,19.00
798039,19.00
798054,786.00
798070,1024.00
798086,1024.00
798102,1024.00
798118,1024.00
798134,893.00
798149,670.00
798165,772.00
798181,848.00
798197,19.00
798213,19.00
798262,16.00
798273,19.00
798283,18.00
798293,18.00
798303,16.00
798313,19.00
798323,16.00
798339,19.00
798355,161.00
798371,713.00
798387,17.00
798457,360.00
798469,507.00
798480,540.00
798490,645.00
798500,805.00
798510,739.00
798520,796.00
798530,890.00
798541,773.00
798552,528.00
798562,442.00
798577,159.00
798662,537.00
798673,534.00
798683,805.00
798693,1001.00
798703,867.00
798715,375.00
798726,262.00
798736,293.00
798746,300.00
798756,255.00
798766,508.00
798776,786.00
798786,615.00
798798,454.00
798814,418.00
798830,448.00
798845,702.00
798861,802.00
798877,802.00
798893,696.00
798909,591.00
798925,735.00
798940,673.00
798956,501.00
798972,317.00
798988,350.00
799004,157.00
799020,794.00
799035,651.00
799051,555.00
799067,748.00
799083,650.00
799099,15.00
799114,584.00
799130,1024.00
799146,1024.00
799162,370.00
799176,123.00
799193,271.00
799209,1024.00
799225,1024.00
799241,1024.00
799257,1024.00
799273,1001.00
799288,1024.00
799304,1024.00
799320,1024.00
799336,1024.00
799352,1024.00
799368,1024.00
799383,16.00
799399,17.00
799415,19.00
799431,18.00
799447,16.00
799461,16.00
799478,19.00
799494,16.00
799510,85.00
799525,235.00
799541,280.00
799557,364.00
799573,82.00
799589,55.00
799605,16.00
799621,19.00
799636,16.00
799652,18.00
799668,17.00
799684,17.00
799700,18.00
799715,303.00
799731,619.00
799747,585.00
799763,519.00
799779,682.00
799795,862.00
799810,944.00
799826,1024.00
799842,1024.00
799857,1024.00
799874,1024.00
799889,1024.00
799905,1024.00
799921,1024.00
799937,1024.00
799953,469.00
799969,223.00
799984,231.00
800000,334.00
800016,16.00
800032,19.00
800048,18.00
800063,16.00
800079,246.00
800095,628.00
800111,663.00
800127,945.00
800143,1024.00
800158,1024.00
800174,1024.00
800190,1024.00
800206,987.00
800222,870.00
800238,807.00
800253,1024.00
800269,769.00
800285,1024.00
800301,1009.00
800317,1024.00
800332,639.00
800348,19.00
800364,18.00
800380,276.00
800396,751.00
800412,745.00
800427,1024.00
800443,1024.00
800459,1024.00
800475,1024.00
800491,766.00
800506,135.00
800522,296.00
800538,97.00
800554,19.00
800570,19.00
800586,15.00
800601,18.00
800617,19.00
800633,16.00
800649,196.00
800665,218.00
800680,33.00
800696,204.00
800712,270.00
800728,226.00
800744,301.00
800760,332.00
800775,332.00
800818,16.00
800829,17.00
800840,17.00
800850,18.00
800860,17.00
800870,17.00
800928,16.00
800938,16.00
800948,219.00
800959,350.00
800969,926.00
801082,1024.00
801092,578.00
801102,375.00
801112,15.00
801122,16.00
801132,17.00
801142,18.00
801152,19.00
801162,20.00
801172,18.00
801182,16.00
801192,17.00
801202,17.00
801213,15.00
801223,18.00
801233,15.00
801243,20.00
801253,15.00
801263,16.00
801273,15.00
801283,56.00
801297,1024.00
801312,1024.00
801329,1024.00
801345,854.00
801361,590.00
801376,538.00
801392,379.00
801408,18.00
801424,19.00
801440,454.00
801456,703.00
801471,756.00
801487,656.00
801503,278.00
801519,75.00
801535,195.00
801550,297.00
801566,138.00
801582,444.00
801598,1024.00
801614,1024.00
801630,1024.00
801645,1024.00
801660,1024.00
801677,1024.00
801693,1024.00
801709,1024.00
801724,1024.00
801740,1024.00
801756,1024.00
801772,556.00
801788,370.00
801804,345.00
801819,152.00
801835,93.00
801851,103.00
801867,232.00
801883,224.00
801898,346.00
801914,526.00
801930,461.00
801946,805.00
801962,570.00
801978,18.00
801993,76.00
802009,254.00
802025,437.00
802041,427.00
802057,466.00
802073,553.00
802088,553.00
802104,393.00
802120,393.00
802136,415.00
802152,430.00
802167,301.00
802183,476.00
802199,825.00
802215,1024.00
802231,1024.00
802247,1024.00
802262,1024.00
802278,1024.00
802294,993.00
802310,240.00
802326,18.00
802341,16.00
802357,16.00
802373,15.00
802389,18.00
802405,18.00
802421,17.00
802436,19.00
802452,193.00
802468,302.00
802484,489.00
802500,612.00
802515,938.00
802531,1024.00
802547,1024.00
802563,1024.00
802579,496.00
802595,304.00
802610,17.00
802626,19.00
802642,16.00
802658,36.00
802674,732.00
802689,472.00
802705,17.00
802721,20.00
802737,19.00
802753,17.00
802769,136.00
802784,1024.00
802800,1024.00
802816,1024.00
802832,1024.00
802848,1024.00
802864,1024.00
802879,1024.00
802895,653.00
802911,409.00
802927,712.00
802943,157.00
802958,18.00
802974,111.00
802989,349.00
803006,452.00
803022,481.00
803037,572.00
803053,497.00
803069,641.00
803085,488.00
803101,317.00
803117,17.00
803132,19.00
803148,17.00
803164,92.00
803180,88.00
803196,30.00
803211,19.00
803227,96.00
803243,221.00
803259,342.00
803274,16.00
803291,16.00
803306,77.00
803322,233.00
803338,257.00
803354,473.00
803370,985.00
803385,917.00
803401,1024.00
803417,1024.00
803433,1024.00
803497,1024.00
803510,865.00
803521,831.00
803532,723.00
803543,850.00
803553,871.00
803564,1023.00
803574,1024.00
803584,831.00
803594,444.00
803607,293.00
803661,765.00
803672,723.00
803682,557.00
803692,916.00
803702,981.00
803712,992.00
803722,1024.00
803807,463.00
803818,433.00
803828,391.00
803838,206.00
803848,292.00
803858,247.00
803868,259.00
803878,150.00
803888,762.00
803898,866.00
803908,454.00
803918,286.00
803928,256.00
803939,424.00
803955,470.00
803971,609.00
803987,396.00
804003,394.00
804018,303.00
804033,86.00
804050,17.00
804066,14.00
804082,18.00
804097,18.00
804113,16.00
804129,18.00
804145,17.00
804161,19.00
804176,16.00
804192,20.00
804208,20.00
804224,37.00
804240,17.00
804256,20.00
804271,67.00
804287,562.00
804303,190.00
804319,276.00
804335,140.00
804351,260.00
804366,741.00
804382,589.00
804398,372.00
804414,900.00
804430,132.00
804445,19.00
804461,17.00
804477,20.00
804492,41.00
804509,17.00
804525,189.00
804540,324.00
804556,18.00
804572,63.00
804588,1024.00
804604,1024.00
804619,1024.00
804635,1024.00
804651,1024.00
804667,1024.00
804683,778.00
804699,703.00
804714,988.00
804730,764.00
804746,574.00
804762,358.00
804778,454.00
804793,604.00
804809,489.00
804825,573.00
804841,457.00
804857,847.00
804873,877.00
804888,268.00
804904,20.00
804920,140.00
804936,436.00
804952,1024.00
804967,1024.00
804983,736.00
804999,246.00
805015,969.00
805031,18.00
805047,522.00
805062,857.00
805078,788.00
805094,741.00
805110,693.00
805126,958.00
805142,557.00
805157,330.00
805171,459.00
805189,967.00
805204,897.00
805220,554.00
805236,394.00
805252,456.00
805268,336.00
805284,750.00
805300,984.00
805315,403.00
805331,68.00
805347,15.00
805363,18.00
805379,19.00
805395,15.00
805410,17.00
805424,19.00
805442,292.00
805458,148.00
805474,433.00
805489,435.00
805505,494.00
805521,672.00
805537,19.00
805553,16.00
805568,390.00
805584,508.00
805600,616.00
805616,559.00
805632,564.00
805648,669.00
805663,720.00
805679,744.00
805695,556.00
805711,636.00
805727,702.00
805742,765.00
805758,1024.00
805774,1024.00
805790,1024.00
805806,785.00
805821,601.00
805837,843.00
805853,596.00
805869,495.00
805885,708.00
805901,946.00
805916,411.00
805932,153.00
805948,117.00
805964,142.00
805980,225.00
805996,381.00
806011,360.00
806027,423.00
806074,926.00
806085,624.00
806095,277.00
806105,327.00
806115,425.00
806125,330.00
806138,121.00
806154,481.00
806170,706.00
806225,500.00
806236,1024.00
806246,1024.00
806256,1024.00
806266,1024.00
806276,423.00
806286,340.00
806296,376.00
806312,280.00
806328,126.00
806399,1024.00
806410,1024.00
806420,1024.00
806430,1024.00
806441,1024.00
806452,1024.00
806463,1024.00
806474,1024.00
806485,1024.00
806496,1024.00
806507,18.00
806518,16.00
806533,16.00
806549,19.00
806565,16.00
806581,17.00
806597,18.00
806613,18.00
806628,19.00
806644,17.00
806660,172.00
806676,548.00
806692,362.00
806707,19.00
806723,19.00
806739,16.00
806755,17.00
806771,16.00
806787,19.00
806802,19.00
806818,284.00
806834,281.00
806850,502.00
806866,244.00
806881,207.00
806897,403.00
806913,414.00
806929,553.00
806945,1024.00
806961,1024.00
806976,1024.00
806992,1024.00
807008,1024.00
807024,1024.00
807039,1024.00
807055,1024.00
807071,1024.00
807087,1024.00
807103,340.00
807119,374.00
807135,597.00
807150,24.00
807166,132.00
807182,422.00
807198,401.00
807214,614.00
807229,550.00
807245,799.00
807261,680.00
807277,675.00
807293,585.00
807309,46.00
807324,20.00
807340,18.00
807356,20.00
807372,19.00
807388,253.00
807403,1003.00
807419,1024.00
807435,1024.00
807451,944.00
807467,310.00
807483,17.00
807498,16.00
807514,540.00
807530,903.00
807546,1024.00
807562,1024.00
807578,1024.00
807593,1024.00
807609,1024.00
807625,1024.00
807641,1024.00
807657,1024.00
807672,588.00
807688,17.00
807704,17.00
807720,19.00
807736,18.00
807752,17.00
807767,16.00
807782,17.00
807799,19.00
807815,18.00
807831,249.00
807846,699.00
807862,638.00
807878,296.00
807894,19.00
807910,17.00
807926,19.00
807941,17.00
807957,19.00
807973,17.00
807989,19.00
808005,232.00
808020,433.00
808036,420.00
808052,519.00
808068,550.00
808084,1024.00
808100,1024.00
808115,1024.00
808131,1024.00
808147,1024.00
808163,1024.00
808179,1024.00
808194,1024.00
808210,1024.00
808225,884.00
808242,754.00
808258,1001.00
808274,361.00
808289,369.00
808305,329.00
808321,1024.00
808337,1024.00
808353,1024.00
808368,1024.00
808384,757.00
808400,310.00
808416,761.00
808432,845.00
808448,1024.00
808463,1020.00
808479,848.00
808494,634.00
808511,458.00
808527,592.00
808542,16.00
808558,18.00
808626,17.00
808637,18.00
808647,19.00
808657,17.00
808667,20.00
808677,17.00
808687,60.00
808697,643.00
808707,1024.00
808717,1024.00
808732,1024.00
808748,1024.00
808764,1024.00
808803,146.00
808814,159.00
808824,175.00
808834,174.00
808844,19.00
808859,19.00
808875,17.00
808890,18.00
808906,20.00
808960,136.00
808971,103.00
808981,314.00
808991,562.00
809001,453.00
809011,493.00
809021,248.00
809033,20.00
809049,18.00
809065,21.00
809081,15.00
809096,18.00
809112,18.00
809128,18.00
809144,17.00
809159,19.00
809175,19.00
809191,17.00
809207,513.00
809223,267.00
809239,421.00
809254,578.00
809270,1024.00
809286,1024.00
809302,1024.00
809318,1024.00
809333,1024.00
809349,1024.00
809365,379.00
809381,31.00
809397,18.00
809413,16.00
809428,18.00
809444,19.00
809460,18.00
809476,21.00
809492,237.00
809508,19.00
809523,18.00
809539,20.00
809555,272.00
809571,450.00
809587,177.00
809602,1024.00
809618,1024.00
809634,264.00
809650,189.00
809666,33.00
809682,21.00
809696,192.00
809713,501.00
809729,20.00
809745,34.00
809761,242.00
809776,220.00
809791,343.00
809808,435.00
809824,543.00
809840,591.00
809855,714.00
809871,930.00
809887,1024.00
809903,1024.00
809919,1024.00
809935,1024.00
809950,1024.00
809966,1024.00
809982,374.00
809998,28.00
810014,73.00
810029,402.00
810045,18.00
810061,18.00
810077,17.00
810093,18.00
810109,17.00
810124,343.00
810140,188.00
810156,260.00
810172,288.00
810188,794.00
810203,1024.00
810219,1024.00
810235,1024.00
810251,765.00
810267,725.00
810283,528.00
810298,535.00
810314,372.00
810330,523.00
810344,876.00
810362,258.00
810375,198.00
810393,270.00
810409,397.00
810425,588.00
810441,562.00
810456,850.00
810472,1024.00
810488,1024.00
810504,1024.00
810520,1024.00
810535,1024.00
810551,1024.00
810567,1024.00
810583,1024.00
810599,1024.00
810615,571.00
810630,200.00
810646,332.00
810662,880.00
810678,513.00
810694,17.00
810710,171.00
810725,156.00
810741,173.00
810757,312.00
810773,364.00
810789,325.00
810804,1024.00
810820,1024.00
810836,1024.00
810852,26.00
810868,17.00
810884,19.00
810899,19.00
810915,21.00
810931,19.00
810947,17.00
810963,16.00
810978,16.00
810994,16.00
811010,18.00
811026,20.00
811042,18.00
811058,17.00
811073,1024.00
811089,857.00
811105,1024.00
811121,1024.00
811137,1024.00
811153,1024.00
811168,1024.00
811184,201.00
811200,17.00
811216,18.00
811231,16.00
811247,16.00
811298,20.00
811309,17.00
811319,17.00
811330,18.00
811340,18.00
811350,16.00
811360,18.00
811410,376.00
811420,910.00
811430,951.00
811441,795.00
811451,610.00
811462,509.00
811532,326.00
811544,305.00
811554,221.00
811565,163.00
811576,228.00
811586,283.00
811597,213.00
811607,355.00
811617,765.00
811627,567.00
811637,305.00
811647,307.00
811659,291.00
811675,790.00
811690,582.00
811706,880.00
811722,1024.00
811738,1024.00
811754,1024.00
811769,1024.00
811785,1024.00
811801,1024.00
811817,1024.00
811833,1024.00
811849,1024.00
811864,744.00
811880,121.00
811896,304.00
811912,519.00
811928,782.00
811943,622.00
811959,16.00
811975,142.00
811991,596.00
812007,1024.00
812023,532.00
812038,564.00
812053,718.00
812070,666.00
812086,881.00
812102,881.00
812115,1024.00
812133,656.00
812149,364.00
812165,222.00
812181,16.00
812196,204.00
812212,223.00
812228,448.00
812244,979.00
812260,1024.00
812276,499.00
812291,1024.00
812307,1024.00
812323,1024.00
812339,1024.00
812355,1024.00
812370,1024.00
812386,1024.00
812402,728.00
812418,424.00
812434,147.00
812450,19.00
812465,16.00
812481,16.00
812497,17.00
812513,18.00
812529,18.00
812544,18.00
812560,19.00
812576,17.00
812592,19.00
812608,20.00
812624,17.00
812639,17.00
812655,866.00
812671,746.00
812687,1024.00
812703,1024.00
812719,1024.00
812734,1024.00
812750,1024.00
812766,1024.00
812782,1024.00
812797,1024.00
812813,836.00
812829,524.00
812845,305.00
812861,381.00
812877,237.00
812892,764.00
812908,628.00
812924,199.00
812940,532.00
812956,980.00
812972,650.00
812987,927.00
813003,946.00
813019,662.00
813035,530.00
813051,106.00
813066,337.00
813082,16.00
813098,19.00
813114,20.00
813130,19.00
813146,19.00
813161,20.00
813177,19.00
813193,19.00
813209,17.00
813225,17.00
813241,17.00
813256,19.00
813272,18.00
813287,20.00
813304,20.00
813320,18.00
813335,187.00
813351,845.00
813367,1024.00
813383,782.00
813399,369.00
813414,343.00
813430,426.00
813446,334.00
813462,608.00
813478,520.00
813494,931.00
813509,1024.00
813525,1024.00
813541,1024.00
813557,1024.00
813573,1024.00
813589,1024.00
813604,1024.00
813620,1024.00
813636,1024.00
813652,1024.00
813668,1009.00
813682,18.00
813728,20.00
813739,17.00
813749,17.00
813759,16.00
813769,17.00
813779,16.00
813794,17.00
813810,19.00
813826,17.00
813842,19.00
813857,19.00
813873,21.00
813889,20.00
813905,17.00
813921,19.00
813958,1024.00
813968,236.00
813978,121.00
813989,112.00
814000,105.00
814053,209.00
814064,148.00
814074,205.00
814084,233.00
814094,175.00
814104,288.00
814114,110.00
814127,260.00
814142,562.00
814158,1024.00
814174,1024.00
814190,682.00
814205,229.00
814221,794.00
814237,1024.00
814253,1024.00
814269,1024.00
814285,1024.00
814300,1006.00
814316,512.00
814332,578.00
814348,519.00
814364,529.00
814379,809.00
814395,807.00
814411,655.00
814427,593.00
814443,408.00
814459,295.00
814474,352.00
814490,422.00
814506,786.00
814522,300.00
814538,685.00
814553,736.00
814569,385.00
814585,351.00
814601,433.00
814617,504.00
814633,572.00
814648,746.00
814664,681.00
814680,618.00
814696,566.00
814712,604.00
814727,595.00
814743,597.00
814759,437.00
814775,629.00
814791,489.00
814807,847.00
814822,1024.00
814838,1024.00
814854,1024.00
814870,1024.00
814886,1024.00
814901,867.00
814917,288.00
814933,234.00
814949,867.00
814965,1024.00
814981,1024.00
814995,1024.00
815012,1024.00
815028,1024.00
815044,1024.00
815060,1024.00
815075,1024.00
815091,1024.00
815107,1024.00
815123,1024.00
815139,1024.00
815155,1024.00
815170,1024.00
815186,1024.00
815202,1024.00
815218,1024.00
815234,1024.00
815249,838.00
815265,676.00
815281,1024.00
815297,1024.00
815313,1024.00
815329,1024.00
815344,1024.00
815360,1024.00
815376,1024.00
815392,1024.00
815408,1024.00
815424,1024.00
815439,1024.00
815455,1024.00
815471,1024.00
815487,17.00
815503,19.00
815518,18.00
815534,19.00
815550,16.00
815566,18.00
815582,16.00
815598,16.00
815613,18.00
815629,19.00
815645,17.00
815661,18.00
815677,18.00
815692,19.00
815707,19.00
815724,19.00
815740,20.00
815756,17.00
815772,17.00
815787,19.00
815803,1024.00
815819,438.00
815835,18.00
815851,16.00
815866,16.00
815882,19.00
815898,16.00
815914,17.00
815930,18.00
815946,18.00
815961,16.00
815977,40.00
815993,349.00
816009,500.00
816025,434.00
816040,342.00
816056,444.00
816072,984.00
816088,1024.00
816104,17.00
816120,18.00
816135,12.00
816151,17.00
816167,19.00
816183,353.00
816199,1024.00
816215,1024.00
816230,1024.00
816246,1024.00
816262,1024.00
816278,1024.00
816294,1024.00
816309,1024.00
816325,833.00
816341,20.00
816357,19.00
816373,19.00
816389,19.00
816404,17.00
816420,531.00
816436,20.00
816477,19.00
816489,19.00
816500,1024.00
816510,1024.00
816520,1024.00
816531,1024.00
816547,1024.00
816601,1024.00
816612,1024.00
816622,1024.00
816632,1024.00
816642,1024.00
816652,1024.00
816662,1024.00
816672,1024.00
816689,1024.00
816705,1024.00
816720,1024.00
816736,543.00
816778,19.00
816788,18.00
816798,17.00
816808,18.00
816818,18.00
816831,16.00
816847,20.00
816863,18.00
816879,381.00
816896,405.00
816911,240.00
816926,233.00
816942,285.00
816958,61.00
816974,44.00
816990,19.00
817005,18.00
817021,19.00
817037,126.00
817053,301.00
817069,550.00
817085,1024.00
817100,538.00
817116,17.00
817132,19.00
817148,18.00
817164,17.00
817179,19.00
817195,19.00
817211,1024.00
817227,1024.00
817243,1024.00
817259,1024.00
817274,1024.00
817290,773.00
817306,17.00
817322,20.00
817337,20.00
817353,18.00
817369,17.00
817385,1024.00
817401,1024.00
817417,1024.00
817432,1024.00
817448,559.00
817464,445.00
817480,405.00
817496,610.00
817511,657.00
817527,883.00
817543,1024.00
817559,989.00
817575,806.00
817591,921.00
817606,980.00
817622,955.00
817638,838.00
817654,488.00
817670,629.00
817686,637.00
817701,879.00
817717,1024.00
817733,1024.00
817749,1024.00
817765,909.00
817780,17.00
817796,17.00
817812,18.00
817828,18.00
817844,820.00
817860,1016.00
817875,1024.00
817891,1024.00
817907,581.00
817923,837.00
817939,703.00
817954,703.00
817970,735.00
817986,807.00
818002,1024.00
818018,1024.00
818033,1024.00
818049,1024.00
818065,1024.00
818081,1024.00
818097,1024.00
818113,1024.00
818128,1024.00
818144,1024.00
818160,545.00
818176,258.00
818192,116.00
818208,1024.00
818223,1024.00
818239,1024.00
818255,1024.00
818271,1024.00
818287,1024.00
818302,1024.00
818318,1024.00
818334,1024.00
818350,1024.00
818366,1024.00
818382,1024.00
818397,310.00
818412,212.00
818429,1024.00
818445,933.00
818461,1024.00
818476,1024.00
818492,1024.00
818508,1024.00
818524,1024.00
818540,880.00
818556,17.00
818571,19.00
818587,20.00
818603,36.00
818619,19.00
818635,17.00
818650,19.00
818666,18.00
818682,19.00
818698,20.00
818714,20.00
818730,16.00
818745,19.00
818761,16.00
818777,15.00
818793,17.00
818809,18.00
818824,15.00
818840,21.00
818856,1024.00
818872,1024.00
818888,1024.00
818904,1024.00
818919,1024.00
818935,1024.00
818951,1024.00
818967,1024.00
818983,1024.00
818998,1024.00
819014,1024.00
819030,1024.00
819046,77.00
819062,20.00
819078,17.00
819093,18.00
819109,17.00
819125,16.00
819141,16.00
819157,797.00
819173,1024.00
819188,1024.00
819204,1024.00
819220,185.00
819236,18.00
819278,20.00
819289,21.00
819299,16.00
819309,19.00
819319,21.00
819331,17.00
819378,19.00
819389,21.00
819399,38.00
819409,469.00
819420,594.00
819431,524.00
819441,535.00
819512,538.00
819524,538.00
819535,538.00
819546,540.00
819560,529.00
819571,574.00
819581,614.00
819591,682.00
819602,777.00
819612,662.00
819622,535.00
819632,369.00
819647,462.00
819663,856.00
819679,120.00
819695,16.00
819710,228.00
819726,19.00
819742,20.00
819758,17.00
819774,18.00
819790,356.00
819805,408.00
819821,677.00
819837,1024.00
819853,865.00
819869,568.00
819884,748.00
819900,879.00
819916,854.00
819932,337.00
819948,17.00
819964,19.00
819979,19.00
819995,290.00
820011,366.00
820027,86.00
820043,19.00
820059,17.00
820074,18.00
820090,18.00
820106,18.00
820122,21.00
820138,394.00
820153,630.00
820169,883.00
820184,1010.00
820201,1004.00
820217,951.00
820233,1024.00
820248,1024.00
820264,1024.00
820280,653.00
820296,1024.00
820312,595.00
820327,319.00
820343,32.00
820359,19.00
820375,18.00
820391,19.00
820407,1024.00
820422,1024.00
820438,1024.00
820454,1024.00
820470,1024.00
820486,897.00
820501,16.00
820517,20.00
820533,19.00
820549,19.00
820565,19.00
820581,16.00
820596,16.00
820612,20.00
820628,20.00
820644,22.00
820660,684.00
820675,666.00
820691,750.00
820707,797.00
820723,670.00
820739,643.00
820755,585.00
820770,881.00
820786,1024.00
820802,1024.00
820818,1024.00
820834,1024.00
820849,1024.00
820865,1024.00
820881,1024.00
820897,1024.00
820913,1024.00
820929,1024.00
820944,1024.00
820960,439.00
820976,653.00
820992,481.00
821008,346.00
821023,813.00
821039,1024.00
821055,1024.00
821071,1024.00
821087,1024.00
821103,1024.00
821118,1024.00
821134,17.00
821150,784.00
821166,1024.00
821182,1024.00
821198,850.00
821213,413.00
821229,141.00
821245,322.00
821261,814.00
821277,60.00
821292,17.00
821308,16.00
821324,14.00
821340,16.00
821356,17.00
821372,16.00
821387,15.00
821403,19.00
821418,20.00
821435,17.00
821451,17.00
821466,18.00
821482,16.00
821498,60.00
821514,31.00
821530,19.00
821546,74.00
821561,18.00
821577,19.00
821593,19.00
821609,17.00
821625,18.00
821640,18.00
821656,18.00
821672,16.00
821688,17.00
821732,16.00
821743,19.00
821753,20.00
821763,21.00
821786,298.00
821797,274.00
821807,361.00
821817,385.00
821830,164.00
821846,72.00
821862,20.00
821878,348.00
821894,1024.00
821954,906.00
821965,476.00
821975,534.00
821985,594.00
821995,445.00
822005,448.00
822015,603.00
822025,1022.00
822036,1024.00
822052,1024.00
822068,1024.00
822083,1024.00
822100,1024.00
822115,1024.00
822131,1024.00
822147,1024.00
822162,1024.00
822178,1024.00
822194,1024.00
822210,1024.00
822226,595.00
822242,350.00
822257,18.00
822273,18.00
822289,16.00
822305,20.00
822321,17.00
822336,233.00
822352,308.00
822368,17.00
822384,18.00
822400,18.00
822416,18.00
822431,16.00
822447,18.00
822463,17.00
822479,21.00
822495,16.00
822511,19.00
822526,208.00
822542,588.00
822558,1024.00
822574,1024.00
822590,550.00
822605,375.00
822621,448.00
822637,394.00
822653,312.00
822669,269.00
822685,322.00
822700,511.00
822716,362.00
822732,435.00
822748,369.00
822764,404.00
822779,456.00
822795,365.00
822811,476.00
822827,510.00
822843,301.00
822859,450.00
822874,475.00
822890,746.00
822906,402.00
822922,266.00
822938,580.00
822953,915.00
822969,1024.00
822985,1024.00
823000,1024.00
823017,1024.00
823033,857.00
823048,942.00
823064,1024.00
823080,1023.00
823096,818.00
823111,762.00
823127,570.00
823143,302.00
823159,312.00
823175,589.00
823191,1024.00
823207,1024.00
823222,1024.00
823238,1024.00
823254,573.00
823268,533.00
823286,222.00
823301,310.00
823317,762.00
823333,1024.00
823349,1024.00
823365,1024.00
823380,1024.00
823396,1024.00
823412,1024.00
823428,1024.00
823444,1024.00
823460,1024.00
823475,1024.00
823491,1024.00
823506,348.00
823523,553.00
823539,56.00
823554,1024.00
823570,1024.00
823586,1024.00
823602,1024.00
823618,1024.00
823634,1024.00
823649,1024.00
823665,1024.00
823681,19.00
823697,16.00
823713,18.00
823728,16.00
823744,20.00
823760,19.00
823776,19.00
823792,18.00
823808,19.00
823823,19.00
823839,18.00
823855,15.00
823871,245.00
823887,66.00
823902,13.00
823918,14.00
823934,36.00
823950,367.00
823966,644.00
823982,804.00
823997,819.00
824013,1020.00
824029,1024.00
824045,1024.00
824061,1024.00
824077,1024.00
824092,893.00
824108,841.00
824124,506.00
824158,19.00
824169,18.00
824179,16.00
824189,17.00
824203,19.00
824219,18.00
824274,314.00
824284,202.00
824294,516.00
824304,669.00
824366,1024.00
824377,504.00
824387,337.00
824397,105.00
824407,17.00
824417,16.00
824427,19.00
824437,17.00
824448,20.00
824459,604.00
824470,283.00
824481,187.00
824491,67.00
824504,91.00
824520,197.00
824535,20.00
824551,17.00
824567,18.00
824583,21.00
824599,17.00
824614,1024.00
824630,1024.00
824646,1024.00
824662,1024.00
824678,1024.00
824694,1024.00
824709,1024.00
824725,1024.00
824741,1024.00
824757,1024.00
824773,581.00
824788,19.00
824804,20.00
824820,19.00
824836,18.00
824852,17.00
824868,17.00
824883,18.00
824899,216.00
824915,52.00
824931,18.00
824947,17.00
824962,20.00
824978,17.00
824994,19.00
825010,17.00
825026,19.00
825042,18.00
825057,92.00
825073,286.00
825089,160.00
825105,18.00
825121,428.00
825136,708.00
825152,528.00
825168,670.00
825184,328.00
825200,55.00
825216,29.00
825231,38.00
825247,57.00
825263,137.00
825279,21.00
825295,28.00
825310,67.00
825326,169.00
825342,297.00
825358,330.00
825374,411.00
825390,487.00
825405,714.00
825421,549.00
825437,361.00
825453,534.00
825469,574.00
825485,798.00
825500,538.00
825516,642.00
825532,1024.00
825548,594.00
825564,248.00
825579,853.00
825595,1024.00
825611,1024.00
825627,1024.00
825643,1024.00
825659,1024.00
825674,1024.00
825690,1024.00
825706,1024.00
825722,1024.00
825738,1024.00
825753,1024.00
825769,1024.00
825785,1024.00
825801,1024.00
825817,1024.00
825833,565.00
825848,17.00
825864,24.00
825880,499.00
825896,822.00
825912,745.00
825927,605.00
825943,621.00
825959,1024.00
825975,1024.00
825991,1024.00
826007,1024.00
826022,1024.00
826038,1024.00
826054,655.00
826070,501.00
826086,117.00
826101,17.00
826117,17.00
826133,567.00
826149,610.00
826164,629.00
826181,240.00
826196,18.00
826212,16.00
826228,19.00
826244,484.00
826260,694.00
826275,1024.00
826291,1024.00
826307,1024.00
826323,1024.00
826339,1024.00
826355,135.00
826370,205.00
826386,202.00
826402,15.00
826418,18.00
826434,15.00
826449,18.00
826465,16.00
826481,15.00
826497,18.00
826513,18.00
826529,17.00
826544,18.00
826560,20.00
826576,20.00
826592,18.00
826608,18.00
826624,61.00
826639,345.00
826655,257.00
826671,246.00
826687,177.00
826703,19.00
826718,602.00
826734,123.00
826750,534.00
826766,1024.00
826782,1024.00
826798,1024.00
826813,1024.00
826854,1024.00
826865,1024.00
826875,1024.00
826885,1024.00
826895,1024.00
826908,1024.00
826924,1024.00
826940,1024.00
826956,286.00
826972,1024.00
826987,1024.00
827003,20.00
827019,20.00
827035,457.00
827087,19.00
827098,17.00
827108,18.00
827118,20.00
827128,22.00
827139,20.00
827149,20.00
827218,21.00
827229,376.00
827239,1024.00
827249,1024.00
827259,1024.00
827269,1024.00
827279,1024.00
827289,1024.00
827299,1024.00
827309,1024.00
827320,888.00
827336,20.00
827351,20.00
827367,19.00
827383,20.00
827399,19.00
827415,16.00
827430,19.00
827446,17.00
827462,17.00
827478,17.00
827494,18.00
827509,16.00
827525,19.00
827541,16.00
827557,19.00
827573,17.00
827589,16.00
827604,18.00
827620,123.00
827636,525.00
827652,1024.00
827668,1024.00
827683,1024.00
827699,1024.00
827715,1024.00
827731,1024.00
827747,860.00
827763,16.00
827778,376.00
827794,726.00
827810,1024.00
827826,1024.00
827842,1024.00
827857,1024.00
827873,1024.00
827889,1024.00
827905,1024.00
827921,1024.00
827937,1024.00
827952,1024.00
827968,1024.00
827984,1024.00
828000,1024.00
828016,1024.00
828032,1024.00
828047,1024.00
828063,1024.00
828079,1024.00
828095,1024.00
828111,507.00
828126,256.00
828142,16.00
828158,16.00
828174,1024.00
828190,1024.00
828206,1024.00
828221,1024.00
828237,1024.00
828253,1024.00
828269,1024.00
828285,1024.00
828300,16.00
828316,19.00
828332,15.00
828348,16.00
828364,15.00
828380,17.00
828395,18.00
828411,18.00
828427,20.00
828442,18.00
828459,20.00
828474,17.00
828490,17.00
828506,17.00
828522,21.00
828538,19.00
828554,21.00
828569,20.00
828585,20.00
828601,17.00
828617,19.00
828633,19.00
828648,16.00
828664,19.00
828680,15.00
828696,17.00
828712,20.00
828728,145.00
828741,240.00
828759,17.00
828775,18.00
828791,17.00
828807,17.00
828822,16.00
828838,16.00
828854,1024.00
828870,1024.00
828886,790.00
828900,1024.00
828917,1024.00
828933,1024.00
828949,1024.00
828965,1024.00
828980,1024.00
828996,1024.00
829012,1024.00
829028,14.00
829044,18.00
829060,17.00
829075,19.00
829091,17.00
829107,17.00
829123,21.00
829139,18.00
829155,16.00
829170,18.00
829186,18.00
829202,18.00
829218,20.00
829234,101.00
829249,225.00
829265,265.00
829281,268.00
829297,80.00
829313,228.00
829329,472.00
829344,652.00
829360,541.00
829376,1024.00
829392,1024.00
829408,1024.00
829423,1024.00
829439,1024.00
829455,1024.00
829523,1024.00
829535,633.00
829545,326.00
829556,297.00
829566,415.00
829576,489.00
829586,481.00
829596,542.00
829607,1024.00
829617,1024.00
829629,1024.00
829679,73.00
829690,1024.00
829700,1024.00
829710,1024.00
829720,1024.00
829730,1024.00
829740,1024.00
829756,1024.00
829772,1024.00
829787,1024.00
829870,1024.00
829880,1024.00
829891,1024.00
829901,1024.00
829911,1024.00
829921,20.00
829931,19.00
829941,19.00
829951,19.00
829962,17.00
829972,19.00
829982,17.00
829993,18.00
830009,16.00
830025,18.00
830040,17.00
830056,19.00
830072,18.00
830088,17.00
830104,19.00
830120,15.00
830135,20.00
830151,17.00
830167,432.00
830183,795.00
830199,1000.00
830214,279.00
830230,402.00
830246,161.00
830262,69.00
830278,16.00
830294,104.00
830309,15.00
830325,16.00
830341,15.00
830357,18.00
830373,17.00
830389,18.00
830404,17.00
830420,20.00
830436,19.00
830452,18.00
830467,20.00
830483,20.00
830499,17.00
830515,19.00
830531,17.00
830547,17.00
830563,19.00
830578,16.00
830594,19.00
830610,20.00
830626,1024.00
830642,1024.00
830657,1024.00
830673,1024.00
830689,1024.00
830705,1024.00
830721,1024.00
830737,1024.00
830752,1024.00
830768,449.00
830784,771.00
830800,1024.00
830815,775.00
830831,562.00
830847,512.00
830863,668.00
830879,1024.00
830895,1024.00
830910,1024.00
830926,735.00
830942,590.00
830958,53.00
830974,1024.00
830990,1024.00
831005,1024.00
831021,1024.00
831037,1024.00
831053,1024.00
831069,1024.00
831084,1024.00
831100,1024.00
831116,1024.00
831132,1024.00
831148,1024.00
831164,1024.00
831179,17.00
831195,19.00
831211,16.00
831227,17.00
831243,152.00
831259,1024.00
831274,1024.00
831290,1024.00
831306,1024.00
831322,1024.00
831338,1024.00
831353,1024.00
831369,1024.00
831385,1024.00
831401,1024.00
831417,1024.00
831433,1024.00
831448,1024.00
831464,221.00
831480,16.00
831496,21.00
831512,17.00
831527,17.00
831543,15.00
831559,15.00
831575,16.00
831591,19.00
831606,18.00
831622,18.00
831638,19.00
831654,20.00
831670,18.00
831686,16.00
831701,16.00
831717,17.00
831733,19.00
831749,19.00
831765,16.00
831781,16.00
831796,19.00
831812,17.00
831828,19.00
831844,20.00
831860,18.00
831875,16.00
831891,19.00
831907,1024.00
831923,537.00
831939,68.00
831955,279.00
831970,324.00
831986,621.00
832002,654.00
832018,641.00
832034,144.00
832076,260.00
832086,566.00
832096,1024.00
832106,1024.00
832116,1024.00
832129,1024.00
832177,1024.00
832187,1024.00
832197,1024.00
832207,1024.00
832259,1024.00
832270,1024.00
832280,1024.00
832290,1024.00
832300,1024.00
832310,1024.00
832320,1024.00
832330,1024.00
832340,1024.00
832350,1024.00
832366,1024.00
832382,1024.00
832398,1024.00
832413,1024.00
832429,1024.00
832445,1024.00
832461,76.00
832477,17.00
832492,16.00
832508,17.00
832524,20.00
832540,708.00
832556,17.00
832572,16.00
832587,19.00
832603,17.00
832619,18.00
832635,139.00
832651,1024.00
832667,1024.00
832682,1024.00
832698,1024.00
832714,1024.00
832730,1024.00
832746,488.00
832761,728.00
832777,543.00
832793,379.00
832809,112.00
832825,259.00
832841,18.00
832856,20.00
832872,18.00
832888,20.00
832904,20.00
832920,20.00
832935,16.00
832951,20.00
832967,576.00
832982,1024.00
832999,1024.00
833015,1024.00
833030,1024.00
833046,1024.00
833062,1024.00
833078,18.00
833094,20.00
833109,17.00
833125,18.00
833141,18.00
833157,398.00
833173,723.00
833189,449.00
833204,241.00
833220,310.00
833236,289.00
833252,309.00
833268,401.00
833283,345.00
833299,393.00
833315,403.00
833331,676.00
833347,600.00
833363,1024.00
833378,951.00
833394,473.00
833410,262.00
833426,38.00
833442,18.00
833457,15.00
833473,17.00
833489,15.00
833505,1024.00
833521,1024.00
833537,1024.00
833552,1024.00
833566,1024.00
833584,1024.00
833600,1024.00
833616,1024.00
833631,1024.00
833647,1024.00
833663,1024.00
833679,1024.00
833695,1024.00
833710,824.00
833726,17.00
833742,20.00
833758,17.00
833774,20.00
833790,16.00
833805,19.00
833821,18.00
833837,17.00
833853,20.00
833869,18.00
833885,19.00
833900,16.00
833916,17.00
833932,20.00
833948,853.00
833964,614.00
833979,377.00
833995,513.00
834011,616.00
834027,1024.00
834043,893.00
834059,794.00
834074,746.00
834090,776.00
834106,546.00
834122,19.00
834138,211.00
834154,22.00
834169,21.00
834185,272.00
834201,468.00
834217,435.00
834233,237.00
834248,389.00
834264,416.00
834280,889.00
834296,1024.00
834312,1024.00
834327,1024.00
834343,1024.00
834359,729.00
834375,727.00
834391,265.00
834407,592.00
834422,768.00
834438,55.00
834454,701.00
834470,123.00
834486,382.00
834502,705.00
834517,1024.00
834533,1024.00
834549,1024.00
834565,496.00
834581,736.00
834596,1024.00
834612,1024.00
834628,764.00
834644,27.00
834660,17.00
834676,17.00
834691,265.00
834707,200.00
834723,63.00
834739,20.00
834755,1024.00
834770,1024.00
834829,1024.00
834840,1024.00
834850,1024.00
834860,1024.00
834870,1024.00
834880,1024.00
834890,1024.00
834901,1024.00
834913,1024.00
834959,1024.00
834970,726.00
834980,17.00
834990,17.00
835000,17.00
835010,18.00
835024,17.00
835039,16.00
835055,19.00
835071,20.00
835173,18.00
835183,320.00
835194,508.00
835204,526.00
835214,442.00
835224,19.00
835234,17.00
835244,19.00
835254,16.00
835264,17.00
835274,20.00
835285,442.00
835295,574.00
835305,341.00
835315,281.00
835325,680.00
835340,689.00
835356,332.00
835372,17.00
835387,20.00
835403,18.00
835419,16.00
835435,19.00
835451,19.00
835466,16.00
835482,378.00
835498,531.00
835514,775.00
835530,799.00
835546,864.00
835561,859.00
835577,785.00
835593,729.00
835609,158.00
835625,19.00
835641,17.00
835656,17.00
835672,717.00
835688,1024.00
835704,1024.00
835720,1024.00
835735,1024.00
835751,18.00
835767,854.00
835783,1024.00
835799,1024.00
835815,1024.00
835830,1024.00
835846,1024.00
835862,1024.00
835878,558.00
835894,1024.00
835909,1024.00
835925,576.00
835941,684.00
835957,780.00
835973,666.00
835989,64.00
836004,17.00
836020,17.00
836036,20.00
836052,20.00
836068,20.00
836084,16.00
836099,17.00
836115,18.00
836131,17.00
836147,16.00
836163,16.00
836178,17.00
836194,19.00
836210,18.00
836226,19.00
836242,19.00
836258,20.00
836273,160.00
836289,17.00
836304,19.00
836321,822.00
836337,812.00
836352,737.00
836368,17.00
836384,1024.00
836400,1024.00
836416,1024.00
836432,1024.00
836447,1024.00
836463,1024.00
836479,1024.00
836495,1024.00
836511,1024.00
836526,1024.00
836542,1024.00
836558,1024.00
836574,1024.00
836590,518.00
836606,285.00
836621,249.00
836637,20.00
836653,20.00
836669,20.00
836685,19.00
836701,17.00
836716,20.00
836732,20.00
836748,21.00
836763,19.00
836780,30.00
836795,1024.00
836811,1024.00
836827,162.00
836843,21.00
836859,19.00
836874,18.00
836890,16.00
836906,18.00
836922,18.00
836938,19.00
836954,1024.00
836969,1024.00
836985,1024.00
837001,1024.00
837017,1024.00
837033,862.00
837049,454.00
837064,1000.00
837080,1024.00
837096,1024.00
837112,1024.00
837128,1024.00
837143,1024.00
837159,1024.00
837175,723.00
837191,735.00
837207,1024.00
837223,1024.00
837238,1024.00
837254,678.00
837270,17.00
837286,18.00
837302,16.00
837317,15.00
837333,21.00
837349,20.00
837365,20.00
837381,18.00
837397,18.00
837412,19.00
837428,1024.00
837445,1024.00
837490,1024.00
837502,566.00
837513,291.00
837524,130.00
837535,93.00
837599,1024.00
837610,1024.00
837620,1024.00
837630,1024.00
837640,1024.00
837650,1024.00
837661,1024.00
837671,1024.00
837747,1024.00
837758,20.00
837768,19.00
837778,18.00
837788,20.00
837798,20.00
837808,17.00
837818,17.00
837828,19.00
837838,19.00
837848,18.00
837858,17.00
837868,18.00
837878,16.00
837888,16.00
837903,19.00
837919,17.00
837934,19.00
837950,658.00
837966,974.00
837982,1024.00
837998,1024.00
838014,1024.00
838029,1024.00
838045,1024.00
838061,1024.00
838077,1024.00
838093,1024.00
838108,1024.00
838123,1024.00
838140,1024.00
838156,19.00
838172,18.00
838188,18.00
838203,15.00
838219,16.00
838235,18.00
838251,20.00
838267,16.00
838282,18.00
838298,19.00
838314,18.00
838330,18.00
838346,898.00
838362,1024.00
838377,1024.00
838393,195.00
838409,16.00
838425,16.00
838441,19.00
838456,19.00
838472,18.00
838488,16.00
838504,17.00
838520,17.00
838536,16.00
838551,16.00
838567,1024.00
838583,1024.00
838599,1024.00
838615,1024.00
838631,1024.00
838646,1024.00
838662,1024.00
838678,1024.00
838694,1024.00
838710,1024.00
838725,1024.00
838741,1024.00
838757,1024.00
838773,1024.00
838789,1024.00
838805,1024.00
838820,1024.00
838836,904.00
838852,918.00
838868,1008.00
838884,1024.00
838899,1024.00
838915,1024.00
838931,1020.00
838947,830.00
838963,789.00
838979,712.00
838994,379.00
839010,19.00
839026,15.00
839042,17.00
839058,18.00
839073,17.00
839089,19.00
839105,15.00
839121,125.00
839137,338.00
839153,30.00
839168,20.00
839184,17.00
839200,17.00
839216,18.00
839232,19.00
839247,20.00
839263,18.00
839279,182.00
839295,600.00
839311,853.00
839327,824.00
839342,981.00
839358,1024.00
839374,814.00
839390,321.00
839406,17.00
839422,17.00
839437,17.00
839453,19.00
839469,16.00
839485,20.00
839501,19.00
839516,19.00
839532,358.00
839548,163.00
839564,196.00
839580,332.00
839596,644.00
839611,1024.00
839627,1024.00
839643,1024.00
839659,1024.00
839675,856.00
839690,966.00
839706,18.00
839722,19.00
839738,16.00
839754,15.00
839770,18.00
839785,19.00
839801,18.00
839817,1024.00
839833,1024.00
839849,1024.00
839864,1024.00
839880,1024.00
839896,1024.00
839912,1024.00
839928,1024.00
839943,1024.00
839959,1024.00
839975,1024.00
839991,1024.00
840050,1024.00
840061,645.00
840071,622.00
840081,785.00
840126,1024.00
840137,1024.00
840147,1024.00
840157,1024.00
840167,1024.00
840177,1024.00
840187,1024.00
840197,1024.00
840280,1024.00
840291,19.00
840301,17.00
840311,19.00
840321,16.00
840331,16.00
840341,18.00
840351,18.00
840361,285.00
840371,590.00
840381,373.00
840391,402.00
840401,645.00
840411,873.00
840421,291.00
840434,20.00
840450,18.00
840466,865.00
840481,1024.00
840497,883.00
840513,684.00
840529,774.00
840545,711.00
840560,890.00
840576,846.00
840592,1024.00
840608,1021.00
840624,1024.00
840640,854.00
840655,802.00
840671,677.00
840687,312.00
840703,153.00
840719,264.00
840734,352.00
840750,370.00
840766,361.00
840782,511.00
840798,306.00
840814,94.00
840829,221.00
840845,307.00
840861,338.00
840877,593.00
840893,542.00
840909,65.00
840924,106.00
840940,20.00
840956,19.00
840972,266.00
840988,447.00
841003,329.00
841019,752.00
841035,18.00
841051,19.00
841067,20.00
841083,19.00
841098,17.00
841114,504.00
841130,413.00
841146,466.00
841162,681.00
841178,667.00
841193,759.00
841209,788.00
841225,1024.00
841241,1024.00
841257,1024.00
841272,1024.00
841288,972.00
841304,673.00
841320,555.00
841336,660.00
841352,692.00
841367,694.00
841383,831.00
841399,816.00
841415,1024.00
841431,1024.00
841447,1024.00
841462,1024.00
841478,1024.00
841494,1024.00
841510,1024.00
841526,1024.00
841541,1024.00
841557,1024.00
841573,1024.00
841589,16.00
841605,394.00
841621,516.00
841636,187.00
841652,16.00
841668,17.00
841684,17.00
841700,18.00
841715,18.00
841731,19.00
841747,17.00
841763,20.00
841779,19.00
841795,15.00
841810,16.00
841824,19.00
841842,18.00
841858,19.00
841874,16.00
841889,15.00
841905,52.00
841921,50.00
841937,16.00
841953,18.00
841969,18.00
841984,106.00
841998,218.00
842016,291.00
842032,370.00
842048,601.00
842063,281.00
842079,257.00
842095,337.00
842111,471.00
842127,630.00
842142,318.00
842158,159.00
842174,16.00
842190,19.00
842206,17.00
842222,802.00
842237,1024.00
842253,1024.00
842269,1024.00
842285,1024.00
842301,817.00
842317,16.00
842332,18.00
842348,22.00
842364,1024.00
842380,1024.00
842396,1024.00
842411,1024.00
842427,1024.00
842443,1024.00
842459,1024.00
842475,1024.00
842491,1024.00
842506,1024.00
842522,1024.00
842538,1024.00
842554,20.00
842605,17.00
842616,17.00
842626,284.00
842636,1024.00
842647,1024.00
842657,1024.00
842667,1024.00
842680,1024.00
842696,1024.00
842712,1024.00
842728,1024.00
842742,1024.00
842759,1024.00
842775,1024.00
842791,16.00
842807,19.00
842823,17.00
842839,18.00
842854,20.00
842870,1024.00
842886,726.00
842902,360.00
842918,264.00
842933,583.00
842949,889.00
843018,1024.00
843029,1024.00
843039,1024.00
843049,1024.00
843059,1024.00
843069,1024.00
843079,1024.00
843089,1024.00
843099,1024.00
843109,1024.00
843123,1024.00
843186,984.00
843197,18.00
843207,17.00
843217,17.00
843227,17.00
843237,18.00
843247,21.00
843258,18.00
843268,588.00
843282,1024.00
843296,1024.00
843313,1024.00
843329,669.00
843345,282.00
843361,19.00
843376,16.00
843392,16.00
843408,16.00
843424,18.00
843440,17.00
843455,19.00
843471,20.00
843487,17.00
843503,20.00
843519,16.00
843535,17.00
843550,16.00
843566,18.00
843582,16.00
843598,19.00
843614,18.00
843629,18.00
843645,20.00
843661,17.00
843677,18.00
843693,20.00
843709,17.00
843724,20.00
843740,190.00
843756,458.00
843772,384.00
843788,481.00
843803,225.00
843819,286.00
843835,53.00
843851,365.00
843867,775.00
843883,869.00
843898,528.00
843914,760.00
843930,1024.00
843946,1024.00
843962,1024.00
843978,1024.00
843993,1024.00
844009,1024.00
844025,1024.00
844041,1024.00
844057,1024.00
844072,268.00
844088,365.00
844104,903.00
844120,581.00
844136,246.00
844152,62.00
844167,146.00
844183,18.00
844199,19.00
844215,19.00
844231,20.00
844247,273.00
844262,378.00
844278,17.00
844294,134.00
844310,692.00
844326,1020.00
844341,1015.00
844357,965.00
844373,739.00
844389,655.00
844405,248.00
844421,16.00
844436,17.00
844452,16.00
844468,18.00
844484,17.00
844500,18.00
844515,16.00
844531,16.00
844547,16.00
844563,1024.00
844579,1024.00
844595,1024.00
844610,1024.00
844626,1024.00
844642,1024.00
844658,1024.00
844674,207.00
844689,231.00
844705,20.00
844721,534.00
844737,1024.00
844753,1024.00
844769,1024.00
844784,845.00
844800,20.00
844816,20.00
844832,19.00
844848,20.00
844863,96.00
844879,685.00
844895,120.00
844911,115.00
844927,201.00
844943,627.00
844958,559.00
844974,650.00
844990,1002.00
845006,1024.00
845022,1005.00
845037,591.00
845053,650.00
845069,549.00
845085,458.00
845101,446.00
845117,560.00
845132,607.00
845148,728.00
845164,653.00
845180,914.00
845196,1024.00
845212,1024.00
845227,1024.00
845243,929.00
845259,29.00
845275,18.00
845291,17.00
845306,1024.00
845322,1024.00
845371,1024.00
845382,1024.00
845392,969.00
845402,778.00
845413,871.00
845438,129.00
845449,20.00
845460,18.00
845470,18.00
845481,17.00
845496,632.00
845512,656.00
845578,780.00
845590,771.00
845600,821.00
845610,956.00
845620,931.00
845634,1024.00
845645,1024.00
845655,1024.00
845665,1024.00
845675,1024.00
845686,1024.00
845702,1024.00
845718,1024.00
845734,1024.00
845749,1024.00
845765,1024.00
845781,1024.00
845797,1024.00
845813,1024.00
845828,1024.00
845844,1024.00
845860,1024.00
845876,1024.00
845892,1024.00
845908,1024.00
845923,1024.00
845939,1024.00
845955,1024.00
845971,651.00
845987,15.00
846003,15.00
846018,16.00
846034,17.00
846050,19.00
846066,19.00
846082,183.00
846097,1024.00
846113,1024.00
846129,1024.00
846145,1024.00
846161,1024.00
846177,1024.00
846192,1024.00
846208,1024.00
846224,1024.00
846240,1024.00
846255,1024.00
846271,1024.00
846287,1024.00
846303,1024.00
846319,920.00
846335,583.00
846351,542.00
846366,699.00
846382,733.00
846398,702.00
846414,618.00
846430,661.00
846445,1024.00
846461,583.00
846477,433.00
846493,500.00
846509,509.00
846525,19.00
846540,18.00
846556,20.00
846572,17.00
846588,17.00
846604,18.00
846619,15.00
846635,18.00
846651,16.00
846667,16.00
846683,19.00
846699,16.00
846714,19.00
846730,20.00
846746,18.00
846762,1024.00
846778,769.00
846794,686.00
846809,949.00
846825,1024.00
846841,1024.00
846857,1024.00
846873,1024.00
846888,1024.00
846904,1009.00
846920,621.00
846936,115.00
846952,18.00
846968,40.00
846983,177.00
846999,237.00
847015,278.00
847031,246.00
847047,492.00
847062,882.00
847078,993.00
847094,529.00
847110,567.00
847126,436.00
847142,17.00
847157,19.00
847173,18.00
847189,19.00
847205,17.00
847221,15.00
847237,15.00
847252,15.00
847268,19.00
847284,16.00
847300,15.00
847316,17.00
847331,62.00
847347,1024.00
847363,1024.00
847379,1024.00
847395,1024.00
847411,1024.00
847426,1024.00
847442,1024.00
847458,1024.00
847474,1024.00
847490,1024.00
847505,1024.00
847521,1024.00
847537,1024.00
847553,1024.00
847569,1024.00
847585,626.00
847600,790.00
847616,948.00
847632,966.00
847648,889.00
847664,967.00
847679,932.00
847695,1024.00
847711,1024.00
847727,930.00
847743,729.00
847759,725.00
847774,18.00
847790,18.00
847806,19.00
847822,18.00
847838,17.00
847854,20.00
847869,16.00
847885,16.00
847901,18.00
847917,19.00
847933,18.00
847948,19.00
847964,20.00
847980,1024.00
847995,1024.00
848012,1024.00
848027,1024.00
848043,1024.00
848059,1024.00
848075,1024.00
848091,1024.00
848107,1024.00
848122,1024.00
848138,1024.00
848154,1024.00
848170,840.00
848186,736.00
848230,49.00
848241,17.00
848251,18.00
848261,17.00
848271,19.00
848281,18.00
848296,18.00
848312,19.00
848328,17.00
848344,19.00
848360,340.00
848376,794.00
848391,882.00
848407,651.00
848423,199.00
848463,21.00
848474,16.00
848485,20.00
848496,17.00
848566,20.00
848579,16.00
848589,496.00
848600,486.00
848611,636.00
848622,1024.00
848634,1024.00
848645,1024.00
848655,1024.00
848665,1024.00
848675,1024.00
848685,1024.00
848695,1024.00
848708,1024.00
848724,1024.00
848739,1024.00
848755,1024.00
848771,1024.00
848787,1024.00
848803,1024.00
848818,1024.00
848834,1024.00
848850,1024.00
848866,1024.00
848882,1024.00
848898,1024.00
848913,1024.00
848929,1024.00
848945,1024.00
848961,1024.00
848977,733.00
848992,586.00
849008,633.00
849024,223.00
849040,17.00
849056,17.00
849072,19.00
849087,16.00
849103,18.00
849119,18.00
849135,19.00
849151,15.00
849166,16.00
849182,16.00
849198,14.00
849214,16.00
849230,20.00
849246,20.00
849261,65.00
849277,115.00
849293,19.00
849309,20.00
849325,226.00
849340,288.00
849356,301.00
849372,472.00
849388,528.00
849404,516.00
849420,600.00
849435,241.00
849451,17.00
849467,17.00
849483,20.00
849499,19.00
849515,21.00
849530,19.00
849546,18.00
849562,19.00
849578,621.00
849594,148.00
849609,17.00
849625,209.00
849641,588.00
849657,867.00
849673,798.00
849689,749.00
849704,629.00
849720,378.00
849736,787.00
849752,570.00
849768,361.00
849783,326.00
849799,496.00
849815,85.00
849831,346.00
849847,625.00
849863,897.00
849878,1024.00
849894,1024.00
849910,1024.00
849926,1024.00
849942,927.00
849957,890.00
849973,976.00
849989,925.00
850005,1024.00
850021,1024.00
850037,1024.00
850052,1024.00
850068,1024.00
850084,1024.00
850100,1024.00
850116,1024.00
850132,1024.00
850147,1024.00
850163,1024.00
850179,1024.00
850195,1024.00
850211,1024.00
850226,1024.00
850242,1024.00
850258,1024.00
850274,1024.00
850290,958.00
850306,806.00
850321,677.00
850337,922.00
850353,1024.00
850369,858.00
850385,18.00
850401,15.00
850416,18.00
850432,18.00
850448,18.00
850464,19.00
850480,17.00
850495,20.00
850511,584.00
850527,504.00
850543,20.00
850559,18.00
850575,44.00
850590,306.00
850606,346.00
