43497,34.80
43508,34.80
43518,33.19
43690,33.84
43701,34.16
43712,33.84
43722,33.84
43732,33.52
43743,33.19
43753,32.87
43764,33.19
43775,33.84
43821,36.42
43833,36.42
43844,36.09
43854,35.77
43865,35.13
43876,35.45
43886,35.77
43897,34.16
43907,34.80
43918,34.16
43929,34.16
43939,35.45
43949,35.45
43959,35.77
43969,36.09
43980,35.45
43990,35.45
44000,35.13
44010,34.16
44020,34.80
44030,34.80
44041,34.80
44051,35.13
44061,35.77
44071,35.77
44082,35.45
44092,35.77
44102,35.77
44113,35.13
44123,34.80
44133,33.52
44144,33.52
44154,33.52
44164,33.52
44175,33.84
44185,33.84
44196,32.87
44206,33.19
44216,33.84
44226,34.80
44236,34.16
44246,35.13
44256,34.80
44266,34.16
44276,35.13
44286,34.16
44302,34.16
44317,33.52
44333,34.80
44349,34.80
44365,34.80
44381,34.16
44396,34.80
44412,35.13
44428,34.16
44444,33.84
44460,33.84
44476,33.84
44491,33.19
44507,33.52
44523,34.16
44539,33.84
44555,33.84
44570,34.16
44586,34.16
44602,33.84
44618,33.52
44634,33.84
44650,34.80
44664,34.16
44681,33.52
44697,34.80
44713,33.52
44729,33.19
44744,33.52
44760,33.19
44776,33.19
44792,33.19
44808,33.52
44824,33.52
44839,34.16
44855,34.16
44871,34.80
44887,34.16
44903,34.16
44918,34.16
44934,33.84
44950,34.80
44966,34.16
44982,34.16
44997,33.52
45013,35.13
45029,35.45
45045,34.80
45061,33.84
45077,33.19
45092,33.19
45108,33.52
45124,33.52
45140,34.16
45156,33.84
45171,33.84
45187,33.84
45203,34.80
45219,33.84
45235,32.87
45251,33.19
45266,34.16
45282,34.16
45298,34.16
45314,33.19
45330,33.19
45345,33.19
45361,33.19
45377,32.87
45393,32.87
45409,33.84
45425,33.84
45440,33.84
45456,33.84
45472,33.84
45488,33.19
45504,34.16
45519,33.84
45535,34.16
45551,34.16
45567,35.13
45583,34.80
45599,34.16
45614,35.13
45630,35.45
45646,35.13
45662,34.80
45678,35.13
45693,34.16
45709,35.45
45725,35.77
45741,34.80
45755,35.13
45772,35.13
45788,33.84
45804,35.45
45820,35.45
45836,35.13
45852,35.13
45867,34.16
45883,32.87
45899,32.87
45915,33.19
45931,33.19
45946,33.19
45962,33.19
45978,33.19
45994,32.87
46010,32.87
46026,33.19
46041,33.84
46057,34.16
46073,33.84
46089,33.84
46105,33.84
46120,34.80
46136,35.13
46152,35.13
46168,34.80
46184,33.84
46200,33.84
46215,33.84
46231,34.80
46247,34.16
46263,35.13
46279,35.13
46294,34.16
46310,34.80
46326,35.13
46342,33.84
46358,33.84
46374,33.52
46389,33.52
46405,34.80
46421,34.80
46437,34.16
46453,32.87
46468,32.87
46484,33.52
46500,35.13
46516,33.19
46532,33.19
46548,32.87
46563,32.87
46579,33.52
46595,33.52
47717,32.87
47730,33.84
47740,33.52
47750,33.84
47760,33.52
47770,33.84
47781,33.52
47791,33.52
47801,33.84
47811,33.84
47821,33.84
47831,33.52
47842,33.84
47852,33.84
47863,34.16
47873,32.55
47883,32.55
47893,32.23
47903,31.58
47914,31.26
47924,27.07
47934,5.48
47944,4.51
47954,4.19
47964,4.51
47974,4.83
47985,5.16
47995,4.83
48005,5.16
48015,33.19
48025,33.52
48035,33.19
48045,33.52
48056,33.19
48066,33.19
48076,32.87
48086,32.87
48096,33.19
48106,33.19
48117,33.84
48127,34.16
48137,33.84
48147,32.87
48158,33.84
48168,32.87
48179,32.87
48189,32.87
48199,32.87
48210,32.87
48220,32.87
48230,33.19
48240,32.87
48250,32.87
48260,32.55
48270,32.87
48280,32.55
48290,32.87
48303,32.55
48319,33.52
48335,32.87
48351,33.52
48366,33.84
48382,33.19
48398,34.16
48414,34.80
48430,33.52
48446,33.52
48461,33.84
48477,33.84
48493,33.84
48509,33.52
48525,33.19
48540,34.80
48556,33.84
48572,33.84
48588,33.84
48604,33.84
48620,33.19
48635,33.19
48651,34.16
48667,34.16
48683,34.16
48699,34.80
48714,34.16
48730,33.52
48746,33.52
48762,33.19
48778,32.23
48794,32.23
48809,32.23
48825,32.55
48841,32.55
48857,32.55
48873,32.87
48889,34.16
48904,33.84
48920,33.84
48936,34.16
48952,33.52
48968,33.84
48983,34.16
48999,33.84
49015,33.19
49031,32.55
49046,32.55
49062,32.87
49078,31.90
49094,31.90
49110,32.87
49126,32.87
49142,33.52
49157,34.16
49173,34.16
49189,34.80
49205,32.87
49221,32.87
49236,34.16
49252,34.16
49268,34.16
49284,33.84
49300,32.55
49316,32.23
49331,32.55
49347,32.55
49363,32.55
49379,33.19
49395,33.19
49410,33.84
49426,33.84
49442,33.52
49458,33.52
49474,33.84
49490,33.84
49505,33.84
49521,33.84
49537,33.84
49553,33.52
49569,33.19
49584,33.52
49600,32.55
49616,32.55
49632,33.19
49648,32.55
49664,33.52
49679,33.84
49695,34.80
49711,34.80
49725,34.80
49743,33.84
49758,32.55
49774,33.52
49790,34.16
49806,33.84
49822,33.52
49837,33.84
49853,32.55
49869,32.55
49885,32.23
49901,32.55
49917,32.55
49931,32.55
49948,33.19
49964,32.87
49980,33.52
49996,33.84
50011,33.84
50027,33.19
50043,32.87
50059,33.19
50075,33.52
50090,33.52
50106,33.19
50122,33.52
50138,32.55
50154,33.19
50170,33.19
50185,32.87
50201,33.19
50217,33.52
50233,33.52
50249,33.19
50264,33.84
50280,33.19
50296,33.19
50312,33.84
50328,33.84
50344,33.19
50359,32.87
50375,33.19
50391,33.52
50407,33.52
50423,33.52
50438,32.55
50454,31.90
50470,31.90
50486,31.90
50502,32.23
50518,32.23
50533,33.52
50549,33.19
50565,33.19
50581,33.52
50597,32.87
50612,32.87
50628,33.19
50644,33.84
50660,33.84
50676,33.19
50692,33.52
50707,33.52
50723,33.19
50739,32.87
50755,32.55
50771,32.87
50786,32.55
50802,32.87
50818,33.52
50834,33.84
50850,34.16
50866,33.84
50881,32.55
50897,33.52
50913,33.84
50929,33.84
50945,33.84
50960,33.84
50976,33.84
50992,32.87
51008,31.58
51024,31.58
51040,31.58
51055,31.58
51071,31.90
51087,32.55
51103,33.52
51119,33.84
51134,33.52
51150,33.52
51166,33.19
51182,33.19
51198,33.52
51214,33.52
51229,33.52
51245,33.84
51261,33.19
51277,33.19
51293,33.19
51308,33.19
51324,32.23
51340,32.55
51356,32.87
51372,33.19
51388,33.19
51403,33.84
51419,33.84
51435,33.84
51451,33.84
51467,33.52
51482,33.84
51498,33.52
51514,33.52
51530,32.55
51546,32.23
51562,32.23
51577,32.23
51593,31.90
51609,32.55
51625,32.23
51641,32.55
51657,32.55
51672,32.55
51688,34.16
51704,33.52
51720,34.16
51736,32.23
51751,32.55
51767,33.19
51783,32.55
51799,66.06
51815,4.83
51830,4.19
51846,3.22
51862,3.22
51878,32.23
51894,32.55
51910,33.19
51925,33.52
51941,33.84
51957,32.55
51973,33.52
51989,33.52
52005,33.52
52020,33.52
52036,33.52
52052,33.84
52068,33.52
52084,32.87
52099,32.55
52115,32.23
52131,32.55
52147,32.55
52163,32.87
52179,32.55
52194,33.84
52210,32.87
52226,33.19
52242,32.87
52258,32.87
52273,33.19
52289,33.19
52305,33.84
52321,33.52
52337,33.84
52353,33.84
52368,33.84
52384,33.84
52400,33.84
52416,29.65
52432,32.87
52447,32.87
52463,33.84
52479,34.16
52495,33.19
52511,33.52
52527,33.84
52542,33.52
52558,33.52
52574,33.84
52590,33.52
52606,33.84
52621,33.84
52637,32.87
52653,34.80
52669,34.80
52685,33.52
52701,33.19
52716,33.84
52732,35.77
52748,35.45
52764,35.13
52780,34.16
52795,34.80
52811,35.45
52827,35.77
52843,34.80
52859,34.16
52875,34.16
52890,35.13
52906,34.80
52922,35.13
52938,35.45
52954,35.13
52969,35.45
52985,35.13
53001,35.45
53017,35.45
53033,33.84
53046,35.77
53064,34.80
53080,34.80
53096,35.45
53112,35.45
53128,33.52
53143,34.80
53159,34.16
53175,34.80
53191,34.80
53207,35.13
53222,34.80
53238,35.13
53254,35.13
53270,34.16
53286,34.80
53302,33.84
53317,33.19
53333,35.13
53349,33.84
53365,35.13
53381,35.13
53396,34.80
53412,34.80
53426,34.80
53444,35.13
53460,35.13
53475,35.45
53491,33.52
53507,34.80
53523,34.80
53539,35.13
53554,35.13
53570,35.45
53586,35.13
53602,33.52
53618,33.52
53634,35.13
53649,35.13
53665,34.80
53681,35.13
53697,34.80
53713,35.45
53728,34.16
53744,32.87
53760,33.52
53776,33.52
53792,33.52
53808,33.19
53823,33.84
53839,34.16
53855,34.16
53871,33.84
53887,34.80
53902,34.80
53918,33.52
53934,34.16
53950,34.80
53966,34.80
53981,34.80
53997,33.84
54013,33.52
54029,34.80
54045,33.19
54061,33.52
54076,33.84
54092,32.87
54108,33.52
54124,34.16
54140,34.16
54156,34.16
54171,34.80
54187,33.84
54203,33.84
54219,34.16
54235,34.16
54250,33.52
54266,34.16
54282,34.16
54298,32.55
54314,32.87
54329,32.55
54345,33.52
54361,33.84
54377,34.80
54393,33.84
54409,33.84
54424,34.80
54440,35.13
54456,34.80
54472,33.84
54488,35.13
54503,35.45
54519,36.42
54535,36.42
54551,34.80
54567,32.87
54583,32.55
54598,8.38
54614,33.52
54630,33.52
54646,32.87
54662,32.87
54678,33.84
54693,33.84
54709,33.84
54725,33.84
54741,32.55
54757,32.23
54772,33.52
54788,33.52
54804,32.55
54820,32.55
54836,32.55
54852,32.23
54867,32.87
54883,32.55
54899,34.16
54915,33.84
54931,32.87
54946,33.84
54962,33.52
54978,33.84
54994,34.16
55010,35.45
55024,34.16
55041,36.09
55057,34.80
55073,32.87
55089,32.87
55105,33.52
55120,33.19
55136,33.19
55152,28.36
55168,33.52
55184,33.84
55200,34.16
55215,33.19
55231,33.19
55247,32.87
55263,32.87
55279,32.87
55294,33.19
55310,33.19
55326,32.87
55342,32.55
55358,32.87
55374,33.19
55389,33.84
55405,33.84
55421,33.52
55437,33.52
55453,33.52
55468,34.80
55484,35.13
55500,35.45
55516,35.13
55532,35.13
55548,39.64
55563,38.99
134487,33.84
134498,34.16
134508,33.52
134518,33.84
134528,34.16
134538,34.80
134756,4.19
134769,4.51
134779,4.83
134789,5.16
134799,4.83
134810,3.87
134820,4.19
134830,5.16
134841,5.48
134851,5.16
134862,5.48
134873,5.16
134943,5.48
134955,5.48
134965,5.48
134975,5.48
134985,5.80
134995,5.16
135005,4.51
135016,4.51
135027,4.19
135037,4.19
135047,4.51
135058,4.51
135068,4.51
135078,5.48
135088,5.48
135098,5.48
135109,5.16
135120,5.48
135130,5.80
135140,5.16
135150,4.51
135161,4.51
135171,4.51
135181,4.83
135191,4.51
135201,4.51
135211,4.51
135221,4.51
135231,5.16
135241,5.48
135251,5.16
135261,4.51
135271,4.83
135281,5.16
135291,5.16
135301,5.16
135311,4.83
135321,4.83
135331,4.83
135341,4.83
135351,5.16
135361,4.83
135371,4.83
135381,4.83
135391,4.83
135401,4.51
135411,4.51
135421,4.83
135431,4.83
135441,4.83
135451,5.16
135461,4.83
135471,4.51
135481,4.83
135491,4.51
135505,4.19
135521,4.51
135537,5.16
135552,4.83
135568,5.48
135583,4.83
135600,4.19
135616,4.19
135632,3.87
135647,4.19
135663,4.51
135679,4.19
135695,4.83
135711,4.83
135726,5.16
135741,5.48
135758,5.48
135774,5.16
135790,5.48
135805,5.48
135821,4.51
135837,4.19
135853,3.87
135869,4.51
135885,5.48
135900,5.16
135916,5.48
135932,5.48
135948,34.80
135964,35.77
135979,6.12
135995,33.52
136011,35.13
136027,33.19
136043,33.52
136059,33.84
136074,34.16
136090,34.16
136106,34.16
136122,33.52
136138,33.84
136153,34.16
136168,56.07
136185,34.16
136201,6.77
136217,4.83
136233,4.51
136248,4.51
136264,4.83
136280,4.83
136296,4.51
136312,4.51
136327,4.83
136343,4.51
136359,20.63
136375,34.16
136391,34.16
136407,33.84
136422,34.16
136438,34.16
136454,35.13
136470,33.84
136486,33.84
136501,34.16
136517,34.16
136533,34.16
136549,34.16
136565,33.84
136581,34.16
136596,34.16
136612,35.45
136628,35.45
136644,35.13
136660,35.45
136676,35.45
136691,35.45
136707,35.45
136723,35.77
136739,35.13
136755,35.77
136770,35.45
136786,35.77
136802,35.77
136818,35.77
136833,35.77
136849,35.77
136865,35.45
136881,35.77
136897,36.42
136913,35.45
136929,35.13
136944,35.77
136960,35.45
136976,35.45
136992,35.13
137008,35.13
137023,35.45
137039,34.80
137055,35.45
137071,35.13
137087,35.13
137103,34.16
137118,34.16
137134,34.16
137150,34.80
137166,34.16
137182,34.16
137300,34.16
137310,34.16
137320,34.16
137330,34.80
137340,34.80
137350,34.80
137360,33.84
137370,33.52
137380,33.84
137390,33.84
137400,34.16
137462,34.80
137472,35.13
137482,35.13
137493,34.80
137503,35.13
137626,34.80
137637,35.13
137647,34.80
137657,35.13
137667,34.80
137678,34.80
137689,34.80
137700,34.16
137711,34.80
137722,34.16
137732,34.80
137743,34.80
137753,34.80
137763,34.80
137773,34.80
137784,35.45
137794,34.16
137804,34.16
137814,33.84
137824,34.16
137834,34.16
137844,35.13
137854,35.13
137865,35.13
137876,35.13
137887,35.45
137897,35.13
137907,35.13
137918,35.45
137928,35.45
137938,35.13
137948,35.13
137958,35.13
137973,35.13
137988,34.80
138004,35.13
138020,35.45
138036,35.13
138052,35.13
138067,34.80
138084,35.45
138099,35.13
138115,35.13
138131,35.13
138147,35.13
138162,35.13
138178,34.80
138194,34.80
138210,35.13
138226,34.16
138241,34.16
138257,34.16
138273,34.80
138289,35.13
138305,34.80
138321,34.80
138336,34.80
138352,35.13
138368,34.80
138384,35.13
138400,34.16
138415,34.80
138431,34.80
138447,34.80
138463,34.80
138479,35.13
138494,34.16
138510,34.16
138526,34.80
138542,34.80
138558,34.80
138574,34.16
138589,34.80
138605,34.80
138621,34.80
138637,34.80
138653,35.45
138668,34.80
138684,33.84
138700,35.13
138716,34.80
138732,34.80
138748,34.80
138763,35.13
138779,34.80
138795,34.80
138811,35.13
138827,34.80
138842,34.16
138858,34.80
138874,34.80
138890,34.80
138906,35.13
138922,34.80
138937,34.80
138953,34.80
138969,34.80
138985,34.80
139001,35.13
139017,34.80
139032,34.16
139048,34.16
139064,34.80
139080,35.13
139096,35.45
139111,34.80
139127,34.80
139143,34.80
139159,34.16
139175,35.13
139190,35.13
139206,34.80
139222,35.13
139238,35.13
139254,35.13
139270,35.13
139285,35.13
139301,34.80
139317,35.13
139333,34.80
139349,35.13
139364,34.80
139380,35.13
139396,35.13
139412,35.13
139428,35.13
139444,35.13
139459,35.13
139475,35.45
139491,35.77
139507,35.13
139523,35.45
139538,35.77
139554,35.13
139570,35.45
139586,35.13
139602,34.80
139618,34.80
139633,34.80
139649,35.13
139665,35.45
139681,35.13
139697,35.45
139712,35.77
139728,35.45
139744,34.80
139760,34.80
139776,34.16
139792,34.80
139807,35.13
139823,35.45
139839,35.45
139855,35.13
139871,35.45
139886,35.45
139902,35.45
139918,35.45
139934,35.13
139950,35.13
139966,35.13
139981,36.09
139997,34.80
140013,34.80
140029,35.13
140045,35.13
140060,35.13
140076,35.13
140092,35.13
140108,34.80
140124,35.13
140140,35.13
140155,34.80
140171,35.13
140187,35.13
140203,35.13
140219,35.13
140234,34.80
140250,34.16
140266,34.80
140282,34.16
140298,34.16
140314,34.16
140329,35.13
140345,35.13
140361,35.13
140377,35.13
140393,34.80
140408,35.13
140424,35.77
140440,35.13
140456,34.80
140472,35.45
140488,35.13
140503,35.45
140519,35.13
140535,35.45
140551,35.13
140567,35.13
140582,35.13
140598,34.80
140614,35.45
140630,35.13
140646,35.13
140662,35.13
140677,35.13
140693,35.13
140709,35.13
140725,34.80
140741,34.80
140756,35.13
140771,34.80
140788,34.80
140804,34.16
140820,34.80
140835,34.80
140851,35.13
140867,35.13
140883,33.84
140899,34.16
140915,34.16
140930,34.80
140946,34.16
140962,34.80
140978,34.80
140994,34.80
141009,35.13
141025,35.13
141041,34.80
141057,34.80
141073,34.80
141089,34.16
141104,34.80
141120,34.80
141136,34.80
141152,34.80
141168,34.16
141183,34.80
141199,34.80
141215,35.13
141231,34.80
141247,34.16
141263,34.16
141278,34.16
141294,35.45
141310,34.80
141326,34.16
141342,34.80
141357,34.16
141373,34.80
141536,35.13
141546,34.16
141556,35.13
141566,35.13
141576,34.80
141586,34.16
141596,34.16
141606,34.16
141616,34.16
141626,33.52
141636,33.52
141646,33.84
141656,33.52
141666,33.52
141677,34.16
141858,33.84
141871,34.16
141882,35.13
141892,33.84
141903,34.80
141913,35.13
141923,35.13
141934,34.80
141944,35.13
141954,34.80
141964,34.80
141975,34.16
141986,34.80
141996,34.16
142006,34.80
142016,34.80
142026,34.80
142036,35.13
142047,35.13
142057,35.13
142067,35.13
142077,34.16
142088,34.80
142098,35.13
142108,34.80
142118,35.13
142128,34.16
142138,34.80
142149,35.13
142159,35.13
142169,35.13
142179,35.77
142447,33.52
142458,33.52
142468,33.52
142478,33.84
142488,33.52
142498,33.84
142508,34.16
142518,34.16
142528,34.16
142538,33.84
142548,34.80
142558,34.16
142568,34.16
142686,33.84
142697,33.84
142707,33.84
142717,33.52
142728,33.84
142739,34.80
142750,34.80
142761,35.13
142771,35.13
142782,34.80
142792,35.13
142802,35.13
142812,35.13
142822,35.13
142833,35.13
142844,35.13
142855,34.80
142866,35.13
142876,35.13
142886,34.80
142896,34.80
142906,35.13
142917,35.13
142927,35.13
142937,34.80
142947,35.13
142957,35.13
142967,34.80
142977,34.80
142988,34.16
142998,34.80
143008,34.80
143018,34.80
143028,35.13
143038,35.13
143048,35.13
143059,34.80
143069,34.80
143079,34.80
143089,34.16
143100,35.13
143110,34.16
143120,34.80
143130,34.80
143140,34.80
143150,34.80
143161,34.80
143171,35.45
143181,35.13
143191,35.13
143201,35.13
143211,35.13
143221,35.13
143231,34.80
143241,34.80
143251,35.13
143261,34.80
143271,34.80
143287,34.80
143303,34.80
143319,34.80
143335,34.80
143350,34.80
143366,35.13
143382,34.80
143398,34.80
143414,35.13
143429,35.13
143445,34.16
143461,34.80
143477,35.13
143493,34.80
143509,33.84
143524,34.80
143540,34.80
143556,34.80
143572,34.16
143588,34.16
143603,34.80
143619,34.80
143635,35.45
143651,35.13
143667,35.45
143683,35.45
143698,35.13
143714,35.45
143730,15.79
143746,5.80
143762,4.83
143777,5.48
143793,5.48
143809,24.17
143825,33.84
143841,33.52
143857,33.84
143872,33.84
143888,33.84
143904,33.84
143920,33.84
143936,34.80
143951,33.52
143967,33.84
143983,33.84
143999,33.52
144015,16.76
144031,4.83
144046,4.51
144062,4.83
144078,5.16
144094,5.16
144110,5.16
144125,5.16
144141,5.16
144157,5.16
144173,34.80
144188,34.16
144204,34.80
144220,35.13
144236,34.80
144252,34.16
144268,34.16
144284,33.84
144299,34.16
144315,34.16
144331,33.84
144347,34.16
144363,34.80
144378,35.13
144394,35.45
144410,35.13
144426,34.80
144442,35.13
144458,35.13
144473,35.77
144489,36.09
144505,36.09
144521,36.09
144537,36.09
144552,36.42
144568,35.77
144584,35.77
144600,35.77
144616,35.45
144632,35.77
144647,35.45
144663,35.77
144679,36.09
144695,35.77
144711,35.45
144726,35.45
144742,36.09
144758,34.80
144774,36.09
144790,35.45
144806,34.80
144821,34.80
144837,33.84
144853,34.16
144869,35.45
144885,34.80
144900,33.84
144954,34.80
144966,35.13
144977,35.13
144988,34.80
144998,34.80
145008,34.80
145018,34.16
145029,35.13
145043,35.13
145059,34.16
145138,34.16
145151,33.84
145161,33.84
145171,34.16
145181,33.84
145191,34.16
145201,33.84
145212,33.84
145222,33.84
145233,34.16
145243,35.13
145253,35.13
145264,35.13
145280,35.13
145342,35.77
145352,35.45
145362,34.80
145372,34.80
145382,34.16
145393,34.80
145403,34.80
145423,35.13
145433,35.45
145443,35.45
145454,35.77
145470,35.13
145486,35.77
145501,35.45
145517,35.45
145533,35.45
145549,35.45
145565,35.13
145581,35.13
145596,35.13
145612,35.13
145628,35.45
145644,35.13
145660,34.80
145675,34.80
145691,34.80
145707,35.13
145723,35.13
145739,35.13
145755,35.13
145771,34.80
145786,35.13
145802,35.13
145818,35.13
145833,35.45
145849,35.77
145865,35.13
145881,35.13
145897,34.80
145913,35.13
145928,35.13
145944,35.13
145960,35.13
145976,35.13
145992,35.13
146008,35.13
146023,35.13
146039,35.13
146055,34.80
146071,34.16
146087,34.80
146102,34.16
146118,33.84
146134,34.16
146150,34.16
146166,34.80
146182,34.16
146197,34.80
146213,34.16
146229,34.16
146245,34.16
146261,33.84
146276,33.84
146292,34.16
146308,35.13
146324,35.13
146340,34.16
146355,34.16
146371,34.16
146387,34.80
146403,34.80
146418,34.16
146435,34.16
146450,34.80
146466,34.80
146482,35.45
146498,34.80
146514,34.16
146529,34.80
146545,34.16
146561,34.16
146577,34.16
146593,34.80
146609,34.80
146624,34.16
146640,34.80
146656,34.80
146672,34.80
146688,35.45
146703,35.77
146719,35.45
146735,34.80
146751,34.16
146767,35.13
146783,34.80
146798,35.13
146813,35.13
146830,33.84
146846,34.16
146862,35.13
146877,34.80
146893,35.45
146909,35.77
146925,35.45
146941,35.45
146956,35.45
146972,35.45
146988,35.77
147004,35.77
147020,35.77
147036,35.77
147051,35.13
147067,35.13
147083,35.45
147099,35.13
147115,34.16
147130,34.80
147146,34.80
147162,34.80
147178,34.80
147194,35.13
147210,34.80
147225,35.13
147241,34.80
147257,34.16
147273,33.84
147289,34.80
147304,34.80
147320,34.16
147336,34.16
147352,34.16
147368,33.84
147384,34.16
147399,34.80
147415,35.45
147431,36.09
147447,35.45
147463,35.13
147478,35.13
147494,34.80
147510,34.16
147526,34.16
147542,34.80
147558,35.13
147573,34.80
147589,34.80
147605,34.16
147621,33.84
147697,34.80
147709,33.84
147720,34.16
147730,34.80
147741,34.16
147751,34.80
147761,34.80
147772,35.13
147783,35.45
147793,35.45
147803,34.80
147814,34.16
147876,35.45
147889,35.45
147900,35.45
147910,35.45
147921,35.13
147932,35.77
147943,35.45
147953,35.13
148008,34.80
148021,34.16
148032,35.13
148043,34.80
148054,35.13
148065,34.80
148076,34.80
148086,34.16
148096,34.16
148107,34.80
148118,34.16
148128,34.80
148143,34.80
148159,34.80
148174,34.80
148190,34.80
148206,34.80
148222,34.16
148238,33.84
148253,34.80
148269,34.16
148285,33.52
148301,34.16
148317,34.80
148333,33.84
148348,34.16
148364,34.16
148380,34.16
148396,34.80
148412,35.13
148428,34.80
148443,34.80
148459,34.80
148475,34.80
148491,34.16
148507,34.16
148522,34.80
148538,34.16
148554,34.16
148570,34.80
148586,35.13
148602,35.13
148617,35.45
148633,34.80
148649,35.13
148665,34.16
148681,34.80
148696,34.80
148712,35.13
148728,35.45
148744,36.09
148760,35.13
148776,35.13
148791,35.13
148807,35.45
148823,35.45
148839,35.13
148855,34.80
148869,34.80
148886,35.45
148902,35.77
148918,35.45
148934,35.77
148949,35.45
148965,35.77
148981,35.45
148997,35.45
149013,35.45
149029,35.45
149044,35.77
149060,35.13
149076,35.13
149092,34.16
149108,35.13
149123,35.45
149139,35.45
149155,35.13
149171,34.80
149187,34.80
149203,34.80
149218,35.45
149234,35.13
149250,33.52
149266,33.52
149282,33.84
149298,34.16
149313,34.16
149329,34.16
149345,34.80
149361,34.16
149377,34.80
149392,35.13
149408,35.13
149424,35.45
149440,34.80
149456,35.13
149472,34.80
149487,34.80
149503,34.80
149519,35.13
149535,34.80
149551,34.80
149566,34.80
149582,34.80
149598,34.80
149614,35.13
149630,34.80
149646,35.13
149661,35.13
149677,34.80
149693,35.45
149709,34.80
149725,34.80
149740,34.80
149756,35.13
149772,35.13
149788,35.13
149804,35.13
149820,35.13
149835,35.13
149851,35.77
149867,35.45
149883,35.13
149899,34.80
149915,35.45
149930,35.13
149946,35.13
149962,35.45
149978,35.13
149994,35.13
150009,35.45
150025,35.77
150041,35.13
150057,35.13
150073,35.45
150089,35.13
150104,34.80
150120,34.16
150136,34.16
150152,34.16
150168,35.45
150203,34.80
150214,34.80
150224,35.13
150234,35.13
150247,34.80
150299,34.80
150309,35.13
150319,34.80
150329,35.13
150339,35.13
150350,33.84
150360,35.45
150373,35.45
150499,35.13
150510,34.80
150520,35.13
150530,34.80
150540,35.13
150551,35.13
150561,35.13
150571,34.80
150581,34.80
150591,34.80
150601,34.80
150611,35.13
150621,35.13
150631,34.80
150641,34.16
150651,34.16
150661,35.13
150671,35.13
150682,33.84
150693,34.16
150705,33.84
150721,34.16
150737,33.84
150753,33.84
150769,34.16
150784,34.80
150800,34.80
150816,35.13
150832,34.16
150848,34.80
150864,33.84
150879,33.84
150897,33.84
150911,33.52
150928,33.52
150943,33.84
150958,34.16
150974,33.84
150990,34.80
151006,34.80
151022,33.84
151038,35.13
151053,35.13
151069,35.13
151085,35.13
151101,34.80
151117,35.13
151132,35.13
151148,35.77
151164,35.45
151180,34.80
151196,35.13
151211,35.13
151227,35.13
151243,35.13
151259,35.13
151275,35.13
151291,35.77
151306,35.45
151322,35.45
151338,35.45
151354,35.13
151370,35.13
151386,34.80
151401,35.13
151417,35.13
151433,35.13
151449,34.80
151465,35.13
151480,35.77
151496,35.77
151512,35.45
151528,35.13
151544,35.13
151560,35.13
151575,34.80
151591,35.13
151607,35.13
151623,34.80
151639,35.45
151654,34.16
151670,33.84
151686,34.16
151702,33.84
151718,34.80
151734,35.13
151748,35.13
151765,35.13
151780,35.13
151797,35.45
151813,35.45
151828,34.80
151844,35.45
151860,34.80
151876,35.13
151892,34.80
151908,35.13
151923,35.45
151939,35.13
151955,34.80
151971,35.13
151986,35.45
152002,35.13
152018,35.45
152034,34.80
152050,34.80
152066,34.80
152081,34.80
152097,35.13
152113,35.13
152129,35.45
152145,35.13
152160,33.84
152176,34.16
152192,34.16
152208,34.80
152224,34.16
152240,34.16
152255,35.13
152271,35.45
152287,35.45
152303,35.45
152318,35.13
152334,34.80
152350,34.80
152365,34.80
152382,34.80
152398,34.80
152414,34.80
152429,34.16
152445,34.80
152461,34.80
152477,34.80
152493,34.80
152508,35.13
152524,35.13
152540,35.13
152556,34.16
152572,34.80
152588,34.16
152603,34.80
152619,35.13
152635,35.45
152651,34.16
152667,34.16
152682,34.80
152698,35.13
152714,35.13
152730,35.13
152746,35.13
152762,35.45
152777,35.45
152793,35.45
152809,35.77
152825,35.45
152841,35.13
152856,35.45
152872,35.45
152888,35.77
152904,35.77
152920,35.45
152936,35.13
152951,34.80
152967,34.80
152983,35.13
152998,34.80
153015,34.80
153029,35.13
153046,35.13
153062,34.80
153078,34.80
153094,34.16
153109,34.80
153125,35.45
153141,33.84
153157,33.52
153234,34.80
153245,34.16
153255,34.16
153265,34.80
153275,34.80
153285,35.13
153295,35.13
153305,34.80
153315,34.16
153325,35.13
153335,35.13
153347,35.45
153361,35.13
153378,34.80
153394,33.84
153410,35.13
153425,35.45
153441,35.13
153457,34.80
153473,35.13
153488,34.80
153505,35.13
153520,34.80
153536,33.84
153552,34.16
153567,34.16
153583,33.84
153599,35.45
153615,35.45
153631,34.80
153647,34.80
153662,34.80
153677,35.13
153694,35.13
153710,35.13
153725,34.80
153742,33.84
153757,34.16
153773,34.16
153789,34.16
153805,34.16
153821,34.80
153837,33.84
153852,34.80
153867,34.16
153884,34.80
153899,34.80
153916,35.13
153930,35.13
153947,35.13
153963,35.45
153978,35.13
153995,35.13
154010,35.13
154025,34.80
154042,34.80
154058,35.13
154074,35.13
154089,35.45
154105,35.13
154121,34.80
154137,35.13
154153,34.80
154168,35.13
154221,35.45
154231,35.13
154241,35.77
154251,35.45
154261,35.13
154271,35.13
154281,35.45
154294,35.45
154310,35.45
154326,35.45
154342,35.45
154358,34.80
154374,34.80
154390,34.16
154405,34.80
154421,34.80
154436,34.80
154453,34.80
154468,34.80
154483,36.42
154500,35.13
154515,34.80
154532,33.84
154548,35.13
154563,35.13
154579,34.16
154594,34.16
155799,34.80
155811,34.16
155821,35.13
155831,35.13
155841,35.13
155851,34.80
155861,35.13
155871,33.84
155881,34.80
155891,34.80
155901,35.13
155912,34.80
155922,35.13
155932,35.13
155942,35.45
155952,35.45
155962,35.13
155972,34.80
155983,35.13
155993,33.84
156003,34.80
156013,34.80
156023,34.16
156033,34.80
156043,34.80
156054,35.13
156064,35.13
156074,34.80
156084,35.13
156094,35.45
156105,35.13
156115,35.45
156125,33.84
156135,34.80
156145,34.80
156156,35.13
156166,34.80
156176,35.13
156186,34.80
156196,34.80
156206,34.80
156216,34.80
156226,34.16
156236,34.16
156246,33.84
156256,34.16
156266,34.16
156276,34.16
156286,34.16
156296,34.16
156306,34.16
156316,34.16
156326,34.80
156336,34.16
156346,34.80
156356,33.84
156366,34.16
156376,34.80
156386,34.16
156396,35.13
156412,34.80
156427,33.84
156444,33.84
156459,33.84
156475,34.16
156491,34.16
156507,34.16
156522,33.84
156538,34.80
156553,35.13
156569,35.13
156586,34.80
156601,34.80
156618,34.16
156631,34.16
156649,34.16
156665,34.16
156681,34.16
156697,34.16
156712,34.16
156728,34.16
156743,34.16
156759,34.16
156773,34.80
156791,34.16
156807,33.84
156823,34.16
156839,34.16
156854,34.16
156870,35.13
156886,33.52
156902,34.16
156918,34.16
156933,34.16
156949,34.80
156965,34.16
156980,34.16
156996,34.16
157013,34.16
157028,34.80
157044,34.16
157060,34.80
157076,34.80
157090,34.80
157107,34.16
157121,34.80
157139,33.84
157154,34.16
157171,35.13
157185,34.80
157201,34.80
157217,34.80
157234,34.80
157249,35.13
157265,34.16
157281,34.80
157296,34.80
157312,34.16
157328,35.13
157342,35.13
157359,33.84
157375,33.84
157391,34.16
157406,34.80
157422,34.16
157439,33.84
157454,33.84
157470,35.13
157486,34.16
157502,34.16
157518,34.16
157533,33.84
157550,34.16
157564,34.80
157580,34.80
157597,34.16
157613,35.13
157629,34.80
157644,33.52
157659,34.16
157676,34.80
157692,34.80
157707,35.13
157722,33.84
157739,34.16
157753,35.13
157770,35.45
157786,36.09
157802,36.42
157818,34.16
157834,34.80
157850,34.80
157865,35.13
157881,34.80
157896,35.45
157911,35.45
157929,35.13
157944,35.77
157959,35.77
157976,35.77
157992,35.77
158008,36.09
158023,35.77
158039,35.13
158055,35.45
158071,35.13
158087,34.80
158103,35.45
158118,35.45
158134,35.45
158150,34.80
158166,35.13
158181,35.13
158196,35.13
158213,34.80
158228,34.80
158244,34.16
158261,35.13
158276,36.09
158291,35.77
158308,34.80
158324,34.80
158339,35.13
158355,35.45
158371,35.13
158387,34.16
158403,33.84
158419,33.84
158434,33.84
158449,34.16
158466,35.45
158482,35.13
158498,34.80
158514,34.80
158529,34.16
158544,33.84
158561,33.84
158577,34.16
158593,33.84
158608,34.80
158624,35.13
158639,34.80
158656,34.80
158672,34.16
158687,34.80
158703,34.16
158719,33.84
158735,34.80
158751,34.80
158767,33.52
158782,33.84
158798,34.80
158814,34.80
158829,34.80
158846,34.80
158860,34.80
158877,35.13
158893,34.80
158909,34.80
158924,35.13
158940,35.13
158955,35.45
158971,35.45
158988,35.45
159004,35.13
159018,34.80
159035,34.80
159050,34.80
159067,34.80
159083,35.13
159098,34.80
159114,34.80
159129,34.80
159146,34.80
159162,34.80
159176,34.16
159193,34.80
159209,35.13
159224,33.84
159241,34.16
159254,34.16
159272,34.16
159288,33.84
159304,33.84
159319,34.16
159334,34.80
159350,35.13
159367,34.80
159383,34.80
159399,34.16
159414,34.16
159430,34.80
159446,34.80
159462,34.16
159478,34.80
159492,33.84
159509,34.16
159525,33.84
159541,33.52
159557,33.84
159572,33.52
159588,34.80
159603,35.13
159620,34.80
159635,34.80
159651,34.80
159666,35.13
159683,33.84
159698,33.84
159715,34.16
159729,34.80
159745,35.13
159762,35.45
159777,35.45
159794,35.77
159808,35.77
159825,35.45
159841,35.13
159857,35.13
159873,35.13
159888,35.45
159903,35.45
159919,34.16
159936,34.80
159952,36.42
159967,36.09
159983,35.13
159999,35.13
160015,35.13
160030,36.09
160047,35.45
160062,35.13
160078,34.80
160093,35.77
160110,35.77
160125,35.77
160141,35.77
160157,36.09
160172,35.45
160189,34.80
160205,35.77
160219,34.16
160236,35.13
160251,34.80
160268,35.13
160282,35.13
160298,35.13
160315,34.16
160330,34.16
160347,34.80
160361,34.80
160377,35.13
160393,34.80
160410,35.13
160426,33.84
160441,34.16
160457,34.80
160473,35.13
160489,35.13
160505,34.16
160519,34.80
160536,35.77
160552,35.77
160568,35.77
160583,35.45
160600,36.09
160614,36.09
160631,36.09
160647,35.77
160663,36.09
160678,36.09
160694,35.77
160709,35.77
160725,35.77
160795,35.45
160808,35.77
160819,35.13
160829,35.45
160839,35.77
160850,35.45
160860,35.45
160870,35.77
160880,35.45
160890,35.45
160900,35.45
160916,35.45
160931,35.45
160947,35.13
160963,35.45
160979,35.45
160995,35.45
161011,33.84
161026,33.84
161042,9.67
161058,5.16
161074,4.83
161090,4.51
161105,4.51
161121,4.51
161137,5.48
161152,34.16
161169,34.80
161184,34.16
161200,33.84
161216,33.84
161232,33.84
161248,33.84
161264,34.16
161279,33.84
161295,34.80
161311,34.16
161326,34.16
161343,33.84
161357,34.16
161374,34.16
161390,33.84
161406,34.16
161422,33.84
161437,33.84
161453,33.84
161469,33.84
161485,34.16
161501,33.84
161517,33.52
161532,33.52
161548,34.16
161564,34.16
161580,34.16
161596,35.13
161611,34.80
161626,35.13
161643,35.13
161659,34.80
161675,34.80
161690,34.80
161706,34.80
161722,35.13
161738,34.80
161754,34.80
161770,34.16
161785,34.16
161801,35.13
161816,34.80
161833,35.13
161848,35.45
161864,34.16
161880,34.80
161896,35.13
161911,35.13
161928,35.13
161943,33.52
161958,34.16
161975,34.80
161991,35.13
162006,35.13
162022,35.13
162037,34.80
162054,34.80
162070,34.16
162084,34.16
162101,34.16
162116,34.80
162133,34.16
162149,34.16
162165,33.84
162180,33.84
162196,34.16
162212,34.80
162228,34.80
162244,35.13
162260,34.80
162274,35.13
162291,35.13
162306,34.16
162323,34.16
162338,34.16
162351,33.84
162370,33.84
162386,34.16
162401,34.16
162417,34.16
162433,35.13
162448,34.80
162465,34.80
162481,34.80
162495,34.80
162512,34.80
162526,34.80
162544,34.16
162560,34.80
162575,34.80
162591,34.80
162607,34.80
162623,34.16
162639,34.16
162652,34.80
162670,34.80
162686,34.16
162702,34.16
162718,35.45
162734,34.80
162749,33.84
162765,34.16
162781,34.80
162797,34.80
162812,34.80
162827,34.16
162844,35.13
162860,34.80
162876,34.80
162892,34.16
162907,34.16
163068,35.13
163081,34.80
163091,34.80
163102,34.16
163113,34.80
163123,35.13
163133,34.80
163143,35.13
163154,35.45
163164,35.45
163175,34.16
163185,34.16
163379,35.13
163390,33.84
163400,33.84
163410,33.84
163420,33.52
163430,33.84
163440,33.84
163450,33.84
163460,33.84
163470,33.84
163480,33.52
163705,35.13
163717,35.13
163727,35.45
163737,35.13
163748,34.80
163758,35.13
163768,35.13
163778,35.13
163789,34.16
163800,34.16
163810,34.80
163820,34.80
163831,34.80
163842,34.80
163872,34.80
163883,34.80
163894,34.16
163904,34.80
163915,35.13
163926,34.80
163936,34.80
163947,35.13
163957,34.80
163967,35.13
163977,34.16
163988,34.80
163998,34.16
164008,34.80
164018,34.16
164028,33.84
164038,34.16
164049,34.80
164059,34.80
164069,33.84
164079,33.52
164089,34.16
164099,34.16
164109,34.80
164120,34.80
164130,34.80
164140,35.13
164151,35.13
164162,34.80
164172,34.80
164182,34.80
164193,34.80
164204,35.13
164214,35.13
164224,35.13
164234,34.80
164244,34.80
164254,34.80
164264,35.13
164274,34.80
164284,35.13
164294,35.45
164304,35.13
164314,35.45
164324,34.80
164334,34.80
164344,34.16
164354,34.16
164364,33.52
164376,33.52
164393,33.52
164408,33.52
164425,33.84
164440,34.16
164455,34.16
164472,34.16
164487,34.80
164504,34.80
164519,34.16
164534,33.84
164551,34.16
164565,34.80
164582,34.80
164598,35.13
164614,35.13
164629,35.45
164646,35.45
164662,35.45
164677,35.77
164692,35.77
164709,34.80
164725,34.80
164740,35.45
164756,35.13
164771,34.80
164788,34.16
164804,34.16
164820,35.13
164835,35.45
164851,34.80
164867,34.80
164883,35.45
164899,35.13
164913,34.80
164930,35.13
164946,35.77
164962,35.45
164978,34.80
164994,34.16
165009,33.84
165025,34.80
165040,34.80
165057,35.13
165073,35.13
165087,35.45
165104,36.42
165120,36.42
165136,35.13
165152,35.13
165166,34.80
165183,35.13
165199,35.13
165215,34.80
165231,34.80
165246,35.13
165262,35.77
165278,35.45
165294,35.77
165310,35.13
165326,35.13
165341,34.16
165357,35.13
165372,35.13
165388,35.45
165405,35.13
165419,34.80
165436,35.45
165452,35.13
165468,35.45
165484,35.13
165498,35.45
165515,35.45
165530,35.77
165547,35.45
165562,35.45
165577,35.45
165594,35.77
165609,35.77
165626,35.45
165642,35.13
165656,35.45
165673,35.45
165688,35.13
165705,35.13
165721,34.80
165736,35.13
165751,34.80
165768,34.80
165784,34.80
165800,34.16
165815,35.13
165831,35.77
165847,34.80
165863,34.80
165878,34.80
165893,35.45
165910,35.13
165925,35.13
165942,35.13
165957,34.80
165973,35.13
165989,35.13
166005,35.13
166021,34.80
166036,34.80
166052,34.80
166068,34.16
166083,34.16
166100,34.80
166116,34.16
166131,34.80
166147,33.84
166163,34.80
166179,34.16
166195,34.80
166210,34.80
166225,34.16
166242,34.80
166258,35.13
166273,34.80
166290,33.84
166304,34.16
166320,34.16
166336,34.16
166352,33.84
166368,34.16
166383,34.16
166400,34.16
166416,34.80
166432,35.13
166445,34.16
166463,34.16
166479,35.13
166495,34.80
166509,34.80
166526,35.13
166541,34.80
166558,35.13
166574,35.77
166673,34.80
166684,35.13
166695,35.45
166706,34.80
166716,34.80
166727,34.16
166738,34.80
166749,34.80
166760,34.80
166771,34.16
166781,35.13
172362,33.52
172375,33.84
172385,33.52
172395,33.84
172405,33.84
172415,33.84
172425,35.13
172435,33.84
172445,33.84
172455,33.84
172465,34.80
172475,35.13
172485,35.13
172495,35.45
172505,35.45
172515,35.45
172525,35.77
172535,36.42
172545,36.09
172555,35.77
172565,35.77
172575,35.45
172585,35.45
172595,35.45
172605,35.45
172615,35.45
172625,35.77
172635,35.77
172645,35.77
172655,35.77
172665,35.13
172675,33.84
172686,34.16
172697,33.84
172708,34.80
172718,35.13
172728,35.45
172738,35.45
172749,35.77
172759,35.77
172769,35.45
172779,34.16
172790,34.16
172801,33.84
172811,33.84
172821,33.52
172832,33.84
172842,33.52
172852,33.84
172863,33.52
172874,33.52
172884,33.84
172894,34.16
172905,34.16
172915,34.16
172926,33.84
172936,33.84
172946,34.16
172960,33.84
172976,33.84
172991,33.84
173007,34.16
173022,34.16
173039,35.13
173055,33.84
173071,34.80
173085,35.13
173102,35.13
173118,34.80
173134,34.80
173149,34.16
173164,34.80
173180,34.16
173197,34.80
173212,34.80
173229,34.16
173244,34.80
173259,34.80
173275,34.16
173292,35.13
173308,35.45
173322,34.16
173339,34.80
173355,34.80
173370,34.80
173387,34.80
173402,34.16
173417,35.13
173434,35.13
173449,34.80
173466,35.13
173480,35.13
173497,35.13
173513,35.45
173528,35.13
173545,34.16
173560,34.80
173575,34.80
173592,35.13
173607,35.13
173623,34.80
173639,34.80
173655,35.13
173671,35.13
173687,34.80
173703,35.13
173718,35.13
173734,35.45
173750,35.45
173766,35.13
173782,35.45
173797,34.16
173812,34.80
173828,34.16
173845,34.80
173861,35.13
173876,34.80
173892,35.77
173908,35.77
173924,34.16
173940,34.16
173956,34.16
173971,34.80
173987,34.80
174003,34.80
174019,34.16
174035,34.16
174050,35.13
174065,35.45
174082,35.13
174098,34.80
174114,34.80
174129,34.16
174145,34.80
174160,35.45
174177,35.77
174193,35.13
174209,35.13
174223,35.13
174240,35.45
174255,34.80
174272,35.13
174286,35.45
174302,35.45
174319,35.45
174334,35.13
174351,35.45
174365,35.45
174382,35.45
174398,35.45
174414,35.13
174429,35.13
174445,35.13
174461,35.45
174476,35.13
174493,35.45
174509,35.45
175560,34.80
175573,34.80
175583,34.80
175593,34.80
175603,34.80
175613,34.80
175623,34.80
175633,34.80
175643,34.80
175653,34.16
175663,35.13
175673,34.16
175683,35.13
175693,35.13
175703,35.13
175713,35.13
175723,35.13
175733,35.13
175744,34.80
175754,35.13
175764,35.13
175775,35.13
175786,35.13
175796,34.80
175806,35.13
175817,34.80
175827,34.80
175837,34.80
175847,34.80
175857,34.16
175868,35.13
175878,35.13
175888,35.45
175898,34.80
175908,33.84
175919,34.16
175929,34.80
175939,34.80
175949,35.13
175959,34.80
175969,35.13
175979,34.80
175990,35.13
176000,35.13
176010,35.45
176020,35.45
176030,34.80
176040,35.13
176051,35.13
176061,34.80
176071,34.80
176082,34.80
176092,34.80
176102,34.80
176112,34.80
176123,35.45
176133,35.13
176143,34.80
176153,35.13
176168,34.80
176184,35.13
176199,35.13
176216,35.13
176231,35.13
176247,33.84
176263,34.16
176277,34.16
176295,33.52
176309,33.52
176326,33.52
176340,33.52
176357,33.52
176374,34.80
176388,34.16
176405,33.84
176421,33.52
176436,33.52
176453,34.80
176468,34.16
176483,34.80
176500,34.80
176516,33.84
176532,34.16
176547,34.16
176563,34.16
176579,34.80
176594,33.84
176611,34.16
176626,33.84
176642,33.52
176657,33.84
176674,34.80
176690,34.80
176706,34.80
176720,35.13
176736,35.13
176753,35.45
176769,35.77
176784,35.13
176800,34.80
176816,34.80
176832,34.80
176848,33.84
176863,34.16
176879,34.16
176895,35.45
176910,35.45
176927,35.45
176943,35.45
176957,35.45
176973,35.45
176990,35.13
177005,34.80
177022,34.80
177036,34.80
177053,34.80
177068,34.80
177084,34.80
177100,34.80
177116,35.13
177132,35.45
177148,34.80
177164,34.80
177179,35.13
177195,35.13
177211,35.13
177227,34.80
177242,34.80
177259,34.80
177274,34.16
177290,34.80
177306,35.45
177322,34.80
177338,34.80
177353,35.13
177368,35.45
177385,34.80
177401,34.80
177416,35.13
177432,34.80
177448,34.80
177464,34.80
177479,34.16
177495,34.16
177511,35.13
177527,35.13
177543,35.45
177558,34.16
177575,35.13
177591,35.13
177605,35.13
177622,35.45
177638,35.77
177654,36.74
177667,37.71
177685,37.38
177701,36.42
177717,35.45
177732,35.13
177748,34.80
177764,34.16
177780,35.13
177796,35.77
177812,35.77
177828,34.80
177843,51.24
177859,6.77
177875,33.84
177891,5.16
177907,5.16
177923,5.48
177937,4.51
177954,4.19
177970,34.80
177986,35.13
178001,35.45
178017,35.13
178032,35.13
178049,19.34
178064,5.48
178081,5.80
178096,5.80
178112,4.19
178128,4.19
178144,3.87
178160,4.83
178175,5.48
178191,4.51
178207,4.83
178354,35.13
178364,35.13
178374,34.80
178384,34.80
178394,34.16
178404,33.84
178414,33.84
178424,33.84
178434,34.16
178444,34.80
178454,34.80
178464,34.16
178474,34.80
178484,35.13
178494,34.80
178504,34.80
178514,34.16
178524,35.13
178534,35.45
178544,35.13
178554,34.80
178564,34.80
178574,34.16
178586,34.80
178602,35.45
178618,35.77
178633,35.77
178649,35.77
178665,35.77
178681,35.45
178696,35.77
178713,36.09
178728,35.77
178744,36.09
178759,36.09
178775,36.09
178792,36.74
178808,36.42
178822,35.77
178839,35.13
178854,35.45
178870,34.80
178886,35.13
178901,35.13
178918,34.80
178934,35.13
178950,35.45
178966,35.77
178981,35.77
178997,35.45
179013,34.80
179029,35.13
179045,35.13
179060,34.80
179076,34.80
179091,35.13
179108,35.13
179124,35.45
179137,35.45
179155,35.45
179171,35.45
179186,35.13
179202,35.13
179217,35.13
179233,35.45
179249,35.45
179266,35.45
179280,35.13
179296,35.13
179313,34.80
179329,33.84
179344,34.16
179360,36.09
179376,35.77
179390,35.45
179408,35.45
179424,34.16
179439,34.16
179454,34.16
179471,35.13
179486,35.13
179501,35.13
179518,35.13
179534,35.13
179549,35.45
179565,35.13
179581,35.77
179597,35.45
179613,35.45
179629,35.13
179645,34.80
179661,35.13
179676,34.80
179692,35.13
179708,35.45
179724,34.80
179740,35.13
179755,35.13
179771,34.80
179787,35.13
179802,35.13
179819,35.13
179835,35.45
179850,35.45
179866,34.80
179882,35.13
179898,34.80
179913,35.13
179928,35.13
179944,35.13
179960,35.45
179977,35.45
179993,35.77
180008,35.45
180024,35.45
180040,35.45
180056,35.13
180071,34.80
180087,35.13
180102,34.16
180119,34.80
180135,34.80
180149,34.80
180166,35.45
180181,35.13
180197,34.80
180214,34.80
180230,35.45
180244,35.45
180261,35.45
180277,35.13
180293,35.45
180309,34.80
180324,34.80
180339,34.16
180356,33.84
180372,34.16
180387,34.80
180403,36.42
180418,35.77
180433,35.77
180451,35.45
180465,34.16
180482,34.16
180498,34.80
180514,34.16
180530,34.16
180545,34.16
180561,34.80
180577,34.16
180592,34.80
180609,34.16
180625,34.16
180639,34.16
180656,34.16
180671,35.13
180688,35.13
180704,35.13
180718,35.45
180734,35.45
180751,35.13
180767,35.45
180783,34.80
180797,35.13
180813,35.45
180830,35.45
180846,35.13
180862,35.77
180877,35.77
180893,36.09
180909,35.77
180925,35.13
180941,35.45
180956,35.77
180972,35.77
180988,35.77
181004,35.45
181020,35.77
181036,35.45
181050,35.77
181067,35.13
181083,35.13
181099,35.13
181115,34.80
181130,34.80
181145,34.16
181161,35.13
181178,33.84
181194,33.84
181208,33.84
181223,34.80
181241,35.13
181257,34.80
181270,34.80
181288,34.16
181304,33.84
181320,34.16
181336,34.16
181349,34.16
181367,34.16
181383,34.16
182514,34.16
182526,33.84
182536,34.16
182546,33.84
182556,33.84
182566,34.16
182576,34.16
182586,33.84
182596,33.84
182606,33.84
182616,33.84
182626,34.80
182636,34.80
182646,35.13
182656,35.45
182666,35.13
182676,35.13
182686,35.13
182696,35.13
182706,35.45
182716,35.13
182726,35.45
182737,35.13
182748,35.45
182758,35.13
182768,35.45
182778,35.13
182789,35.45
182799,35.45
182809,35.45
182819,35.77
182829,35.45
182840,35.45
182850,35.13
182861,35.45
182871,35.45
182881,35.45
182891,35.45
182901,35.13
182911,35.13
182922,35.13
182932,35.77
182943,35.45
182953,34.16
182963,34.16
182973,34.16
182984,34.80
182994,34.16
183005,34.16
183015,34.80
183025,34.80
183035,34.80
183045,34.80
183056,34.80
183066,34.80
183076,35.13
183086,35.13
183096,34.80
183106,35.13
183121,35.13
183136,34.80
183152,35.13
183168,35.13
183184,34.80
183200,34.80
183216,35.13
183232,34.80
183248,34.80
183264,35.13
183278,35.13
183294,34.80
183311,34.80
183327,34.16
183341,34.16
183358,34.80
183373,35.45
183390,33.84
183404,34.16
183421,34.16
183437,34.80
183452,34.80
183468,34.80
183485,35.13
183500,34.80
183516,35.13
183532,35.13
183547,35.13
183563,35.13
183579,34.80
183595,34.16
183609,34.80
183627,34.16
183642,35.13
183657,34.80
183674,35.13
183689,34.80
183706,35.13
183722,35.13
183736,34.80
183753,34.80
183769,34.80
183785,34.80
183801,34.80
183816,35.13
183831,35.45
183847,35.13
183864,35.13
183880,35.13
183895,35.13
183911,34.16
183927,34.80
183943,34.80
183959,34.16
183975,35.13
183989,34.80
184006,34.80
184022,34.16
184037,34.16
185033,34.80
185046,35.13
185056,34.80
185066,35.45
185076,35.45
185087,35.45
185097,35.13
185107,35.77
185117,35.77
185128,35.45
185138,35.77
185148,36.09
185159,35.13
185170,34.80
185180,34.16
185190,34.16
185200,35.13
185211,34.80
185221,35.45
185231,35.77
185241,35.13
185251,36.42
185261,36.09
185271,36.42
185281,36.09
185292,35.45
185302,35.77
185312,35.77
185322,35.77
185332,35.45
185342,35.45
185352,34.80
185362,34.80
185372,34.16
185382,35.13
185392,34.80
185402,34.16
185412,35.13
185422,35.13
185432,35.45
185442,35.13
185452,34.80
185462,34.80
185472,34.80
185482,34.80
185492,35.13
185502,34.80
185512,34.80
185522,34.80
185532,35.13
185542,35.45
185552,35.13
185562,35.13
185572,35.45
185582,35.45
185592,35.13
185602,35.13
185617,34.80
185634,35.13
185649,35.13
185666,35.45
185680,35.13
185697,35.13
185713,35.13
185729,35.13
185745,35.45
185760,35.13
185775,34.80
185791,34.80
185806,35.13
185824,35.13
185838,35.13
185855,34.80
185870,35.13
185886,35.13
185902,35.13
185918,34.80
185933,34.80
185949,35.13
185966,34.80
185980,35.13
185996,35.13
186013,35.45
186029,35.45
186045,34.80
186061,34.16
186076,34.80
186092,35.13
186107,35.13
186124,34.80
186139,35.13
186154,35.45
186171,35.45
186187,35.45
186203,35.77
186218,35.77
186512,33.84
186522,33.84
186532,34.16
186542,33.52
186552,34.16
186562,33.84
186572,34.16
186583,33.84
186593,34.16
186603,33.84
186613,34.16
186623,34.80
186633,34.80
186643,34.80
186653,34.16
186663,34.16
186673,34.16
186683,34.16
186693,34.16
186703,35.13
186713,34.16
186723,35.13
186734,35.13
186744,35.45
186755,35.45
186765,35.45
186775,35.45
186786,35.13
186796,35.13
186806,35.13
186816,34.80
186826,34.16
186836,34.80
186846,35.13
186856,35.13
186867,34.80
186878,35.13
186888,35.45
186898,35.45
186908,35.13
186918,34.80
186929,34.16
186940,34.80
186950,35.13
186960,35.13
186970,35.13
186980,35.13
186991,35.13
187001,35.13
187011,35.45
187024,35.45
187111,35.13
187124,34.80
187135,35.45
187146,35.13
187156,35.13
187166,35.13
187176,35.45
187186,35.13
187196,35.13
187206,35.13
187216,34.80
187226,34.80
187236,35.13
187246,35.13
187262,35.13
187276,35.13
187293,35.45
187308,35.13
187325,35.45
187340,35.45
187356,35.13
187372,34.80
187388,35.13
187403,35.13
187420,35.13
187435,34.80
187451,35.13
187467,34.80
187482,35.13
187499,34.80
187513,34.80
187530,34.80
187546,34.16
187562,34.16
187578,34.16
187594,34.80
187609,34.16
187625,34.16
187640,34.80
187656,34.16
187670,34.16
187687,34.16
187704,34.16
187720,34.80
187736,33.84
187750,34.16
187767,35.13
187783,35.13
187799,34.16
187813,34.16
187829,34.16
187846,35.13
187860,34.80
187877,34.16
187893,35.13
187908,35.45
187924,35.45
187941,35.45
187957,35.45
187972,35.13
187988,35.13
188004,35.13
188020,34.80
188036,34.80
188051,35.45
188067,35.13
188083,35.13
188099,35.45
188115,35.45
188131,35.45
188146,35.45
188162,35.13
188178,35.45
188193,35.13
188210,35.45
188225,35.77
188241,34.80
188255,33.84
188273,34.16
188289,35.45
188303,35.13
188320,35.13
188335,35.13
188352,35.13
188368,35.13
188383,35.45
188398,35.45
188415,35.45
188430,35.13
188446,35.13
188461,34.80
188476,34.80
188494,35.13
188510,35.13
188526,35.13
188539,35.13
188557,35.13
188572,34.80
188589,34.80
188603,34.80
188620,34.80
188636,35.13
188652,34.80
188667,35.13
188682,35.45
188699,34.16
188715,34.16
188731,34.16
188747,34.16
188763,34.80
188778,33.84
188792,33.84
188810,34.16
188825,33.84
188842,34.16
188857,34.16
188872,34.16
188888,34.80
188904,34.16
188920,34.80
188935,34.80
188952,34.80
188968,34.16
188984,34.80
188998,34.80
189015,34.16
189031,34.80
189047,34.16
189061,34.16
189078,34.16
189094,34.16
189110,35.13
189126,35.13
189141,34.16
189157,33.84
189173,34.16
189189,34.80
189205,34.80
189221,34.16
189236,34.16
189252,34.80
189268,35.13
189283,35.13
189300,35.13
189313,34.80
189330,34.16
189347,34.80
189363,34.80
189379,35.13
189393,34.80
189410,35.13
189426,35.13
189442,33.84
189457,33.84
189474,34.16
189707,35.13
189719,35.13
189730,34.80
189740,34.16
189751,35.13
189761,34.80
189771,35.13
189782,35.13
189792,34.80
189802,34.80
189812,34.16
189822,34.80
189832,34.16
189842,34.80
189852,34.80
189863,34.80
189873,35.13
189883,35.13
189893,35.13
189904,35.45
189915,34.80
189925,35.13
189935,35.13
189945,34.80
189955,34.16
189966,35.13
189976,35.13
189987,35.13
189997,35.13
190008,35.13
190018,35.45
190028,35.45
190038,34.80
190048,34.16
190059,34.80
190069,34.16
190079,34.16
190089,34.80
190099,35.13
190110,35.13
190120,35.45
190137,35.77
190153,35.13
190169,35.77
190184,36.09
190199,36.42
190216,36.09
190230,35.77
190248,35.77
190261,35.45
190279,35.77
190295,35.45
190311,35.13
190327,35.13
190342,35.45
190357,35.13
190373,34.80
190390,35.13
190406,35.13
190421,35.13
190436,34.80
190452,35.45
190469,35.45
190484,34.16
190498,34.16
190516,35.13
190531,34.80
190548,34.80
190564,34.80
190579,34.80
190593,34.80
190610,35.13
190627,34.16
190641,34.80
190658,35.13
190672,35.13
190690,34.80
190706,34.80
190721,34.80
190736,34.80
190753,35.13
190769,34.80
190784,34.80
190800,34.80
190814,34.80
190832,33.84
190848,33.84
190864,33.84
190879,34.16
190894,34.80
190911,34.80
190927,33.84
190943,34.16
190958,34.80
190973,35.13
190989,35.13
191006,34.80
191022,34.16
191037,34.80
191053,35.13
191069,35.45
191085,35.13
191101,35.13
191117,35.13
191132,35.13
191148,35.45
191164,35.13
191179,35.13
191196,34.80
191211,35.13
191227,35.45
191242,35.45
191258,35.13
191274,34.80
191416,35.45
191426,35.13
191436,35.45
191446,33.84
191457,33.84
191467,33.84
191601,35.13
191611,35.13
191621,35.13
191631,35.13
191641,35.45
191651,35.77
191661,35.45
191671,35.77
191682,35.77
191692,35.77
191702,35.45
191712,35.45
191722,35.13
191732,34.80
191744,34.16
191754,34.16
191764,34.16
191775,34.16
191785,34.80
191795,34.80
191805,35.13
191815,34.16
191825,34.80
191835,34.16
191846,34.16
191857,34.80
191867,34.16
191877,33.84
191887,34.80
191897,34.16
191908,34.16
191918,34.16
191928,34.16
191938,34.80
191949,34.80
191960,34.80
191971,34.16
191981,34.80
191991,35.13
192002,34.80
192017,34.16
192033,34.80
192049,34.16
192065,33.84
192081,34.16
192096,34.16
192110,34.80
192128,35.13
192144,35.13
192159,35.13
192175,35.13
192190,35.45
192205,35.45
192222,34.80
192237,34.80
192252,35.13
192270,35.45
192285,35.13
192301,35.13
192316,35.13
192333,35.45
192348,35.77
192365,35.77
192379,35.45
192396,35.13
192412,35.13
192428,35.13
192444,35.13
192460,35.13
192475,35.45
192489,34.80
192507,35.13
192523,35.13
192539,34.80
192554,35.13
192569,35.13
192586,35.45
192602,35.13
192618,35.45
192633,35.77
192648,34.80
192665,34.16
192681,34.80
192697,34.80
192712,35.45
192728,35.13
192744,35.45
192758,35.13
192775,35.45
192804,35.45
192815,34.16
192825,35.13
192838,35.13
192852,34.80
192870,34.80
192886,15.79
192902,4.83
192917,4.19
192934,34.16
192949,33.84
192965,34.16
192979,33.84
192997,33.84
193010,33.84
193028,34.16
193044,35.13
193058,35.77
193075,34.80
193090,34.16
193107,35.13
193122,34.80
193139,35.13
193153,35.77
193170,35.77
193186,35.45
193201,35.13
193217,35.13
193233,35.13
193248,35.13
193265,35.13
193280,35.13
193297,35.13
193312,35.13
193327,35.13
193344,35.45
193358,35.45
193376,35.45
193390,35.13
193406,35.13
193423,35.13
193439,35.13
193454,34.80
193468,35.13
193486,35.77
193501,35.13
193518,34.80
193531,34.80
193549,34.80
193565,35.13
193581,34.80
193597,35.45
193610,34.80
193628,35.13
193644,35.45
193660,35.13
193675,35.13
193691,35.13
193707,34.80
193723,35.13
193739,34.80
193753,34.16
193770,34.80
193784,34.16
193802,34.80
193818,34.80
193833,35.13
193849,34.80
193864,35.13
193881,35.13
193897,34.80
193913,35.13
193928,34.80
193944,34.16
193960,35.13
193975,35.45
193992,35.13
194008,34.16
194023,34.16
194038,35.13
194055,35.13
194070,34.80
194085,35.13
194101,35.13
194118,35.45
194133,35.13
194150,35.13
194165,34.80
194179,34.80
194197,34.80
194213,34.16
194228,33.84
194243,33.84
194260,33.84
194276,33.84
194292,33.84
194306,34.16
194323,33.84
194338,35.13
194355,35.13
194371,34.80
194386,35.45
194402,35.45
194416,34.16
194434,35.45
194449,35.45
194465,35.13
194481,33.84
194495,34.16
194512,33.84
194529,33.84
194544,34.16
194559,34.80
194576,34.16
194591,34.16
194608,33.84
194622,34.80
194639,34.80
194654,34.16
194671,34.16
194687,34.80
194702,34.80
194718,34.16
194734,34.80
194748,34.16
194766,35.13
194781,35.45
194797,34.16
194811,34.80
194829,34.80
194845,34.80
194860,34.80
194876,34.80
194892,34.80
194908,34.80
194924,35.13
194940,35.13
194955,35.13
194971,33.84
194987,35.45
195002,35.45
195019,35.45
195034,35.45
195049,35.13
195065,35.13
195082,35.45
195098,35.45
195113,35.13
195128,35.13
195145,35.13
195161,35.45
195177,35.77
195347,35.13
195357,35.13
195367,35.13
195377,35.13
195387,34.80
195397,35.13
195407,35.13
195417,34.80
195427,34.16
195437,34.16
195447,35.13
195457,34.80
195467,34.80
195477,34.80
195487,34.80
195497,35.13
195507,35.13
195517,34.80
195527,34.80
195537,34.16
195630,35.13
195641,35.77
195651,35.77
195661,34.80
195671,34.16
195682,34.80
195693,34.80
195703,35.45
195714,34.80
196041,34.80
196054,34.16
196064,35.13
196074,35.13
196085,34.16
196095,33.84
196105,34.16
196116,34.80
196127,35.45
196138,35.13
196149,35.45
196160,35.45
196170,35.45
196180,35.45
196190,35.45
196200,34.80
196210,33.84
196220,34.16
196230,34.16
196240,34.16
196250,34.16
196260,34.16
196270,34.16
196280,34.80
196290,34.16
196300,34.80
196310,34.80
196320,34.80
196330,34.16
196340,34.80
196351,34.80
196361,34.16
196371,34.80
196381,35.13
196391,35.13
196401,35.13
196411,34.80
196421,34.80
196431,34.16
196441,35.13
196451,34.16
196461,35.45
196471,35.13
196481,35.13
196491,34.80
196501,35.45
196511,35.13
196521,35.13
196531,33.84
196541,35.13
196551,34.80
196561,34.80
196571,34.80
196581,34.80
196591,34.80
196601,35.45
196611,35.45
196621,35.45
196631,35.13
196646,35.77
196662,35.77
196677,35.45
196691,35.45
196709,35.13
196723,35.13
196740,35.13
196756,35.45
196771,35.13
196788,35.45
196803,35.13
196819,35.45
196834,35.45
196851,35.45
196867,34.16
196883,34.80
196899,34.80
196915,35.13
196929,35.45
196946,34.16
196962,12.57
196978,4.51
196994,4.51
197009,4.83
197025,4.51
197041,4.83
197057,4.83
197072,4.83
197088,33.52
197104,21.27
197119,34.80
197136,34.16
197151,34.80
197167,34.16
197183,34.16
197199,34.16
197213,33.84
197230,35.13
197245,35.13
197262,34.80
197278,7.09
197293,4.19
197310,4.51
197325,4.83
197341,4.83
197357,6.12
197373,4.19
197389,34.16
197404,34.16
197420,34.16
197436,34.80
197451,34.80
197468,34.80
197482,34.80
197499,34.80
197515,34.80
197531,34.80
197545,34.16
197562,34.80
197577,34.80
197594,34.80
197609,34.16
197625,34.16
197640,34.16
197657,34.80
197672,34.80
197689,34.16
197705,34.80
197720,34.80
197734,34.80
197752,34.80
197768,34.80
197784,35.13
197798,35.13
197815,34.16
197831,34.80
197847,34.80
197863,35.13
197878,34.80
197894,35.13
197908,35.13
197925,35.13
197942,34.80
197957,35.13
197972,35.13
197989,34.16
198005,34.16
198020,34.80
198036,34.80
198052,34.80
198068,33.84
198084,33.84
198100,33.84
198113,33.84
198131,33.84
198146,33.84
198163,33.84
198179,34.16
198195,33.84
198210,34.80
198226,34.80
198299,34.16
198310,34.80
198320,34.16
198330,34.16
198340,34.80
198350,34.80
198360,35.13
198370,35.13
198380,34.80
198390,34.80
198400,34.80
198416,35.13
198431,34.80
