47717,145.00
47730,1024.00
47740,1024.00
47750,1024.00
47760,1024.00
47770,1024.00
47781,1024.00
47791,1024.00
47801,1024.00
47811,1024.00
47821,1024.00
47831,1024.00
47842,1024.00
47852,1024.00
47863,1024.00
47873,14.00
47883,13.00
47893,12.00
47903,12.00
47914,9.00
47924,344.00
47934,548.00
47944,520.00
47954,528.00
47964,537.00
47974,536.00
47985,530.00
47995,529.00
48005,533.00
48015,531.00
48025,537.00
48035,537.00
48045,528.00
48056,217.00
48066,14.00
48076,82.00
48086,15.00
48096,13.00
48106,221.00
48117,701.00
48127,1024.00
48137,1024.00
48147,1024.00
48158,848.00
48168,15.00
48179,16.00
48189,14.00
48199,16.00
48210,16.00
48220,16.00
48230,15.00
48240,16.00
48250,13.00
48260,15.00
48270,15.00
48280,15.00
48290,13.00
48303,43.00
48319,734.00
48335,165.00
48351,509.00
48366,786.00
48382,450.00
48398,807.00
48414,967.00
48430,712.00
48446,1024.00
48461,1024.00
48477,1024.00
48493,1024.00
48509,788.00
48525,511.00
48540,973.00
48556,1024.00
48572,1024.00
48588,1024.00
48604,586.00
48620,121.00
48635,245.00
48651,1024.00
48667,1024.00
48683,1024.00
48699,1024.00
48714,1024.00
48730,1024.00
48746,1024.00
48762,727.00
48778,14.00
48794,13.00
48809,13.00
48825,15.00
48841,12.00
48857,14.00
48873,15.00
48889,970.00
48904,937.00
48920,1024.00
48936,1005.00
48952,556.00
48968,1024.00
48983,1024.00
48999,870.00
49015,509.00
49031,471.00
49046,665.00
49062,573.00
49078,111.00
49094,72.00
49110,15.00
49126,15.00
49142,474.00
49157,1013.00
49173,1024.00
49189,1024.00
49205,670.00
49221,69.00
49236,868.00
49252,1024.00
49268,1024.00
49284,1024.00
49300,15.00
49316,15.00
49331,12.00
49347,12.00
49363,13.00
49379,376.00
49395,397.00
49410,648.00
49426,718.00
49442,609.00
49458,876.00
49474,1024.00
49490,1024.00
49505,1024.00
49521,1024.00
49537,1024.00
49553,1024.00
49569,615.00
49584,774.00
49600,15.00
49616,13.00
49632,414.00
49648,259.00
49664,602.00
49679,812.00
49695,821.00
49711,1024.00
49725,1024.00
49743,481.00
49758,13.00
49774,349.00
49790,621.00
49806,1024.00
49822,1024.00
49837,1024.00
49853,12.00
49869,15.00
49885,13.00
49901,13.00
49917,13.00
49931,14.00
49948,217.00
49964,228.00
49980,924.00
49996,944.00
50011,807.00
50027,451.00
50043,373.00
50059,617.00
50075,763.00
50090,613.00
50106,529.00
50122,905.00
50138,528.00
50154,714.00
50170,402.00
50185,346.00
50201,466.00
50217,770.00
50233,1024.00
50249,338.00
50264,669.00
50280,412.00
50296,190.00
50312,974.00
50328,973.00
50344,483.00
50359,217.00
50375,633.00
50391,986.00
50407,1024.00
50423,1024.00
50438,12.00
50454,14.00
50470,13.00
50486,10.00
50502,12.00
50518,51.00
50533,865.00
50549,765.00
50565,693.00
50581,850.00
50597,375.00
50612,445.00
50628,676.00
50644,1024.00
50660,1024.00
50676,681.00
50692,929.00
50707,955.00
50723,739.00
50739,440.00
50755,314.00
50771,361.00
50786,171.00
50802,200.00
50818,461.00
50834,1024.00
50850,1024.00
50866,1024.00
50881,411.00
50897,663.00
50913,852.00
50929,1024.00
50945,1024.00
50960,1024.00
50976,1024.00
50992,619.00
51008,12.00
51024,12.00
51040,9.00
51055,10.00
51071,14.00
51087,14.00
51103,703.00
51119,1024.00
51134,1024.00
51150,1024.00
51166,714.00
51182,702.00
51198,698.00
51214,758.00
51229,858.00
51245,1024.00
51261,1024.00
51277,1024.00
51293,1024.00
51308,1024.00
51324,331.00
51340,14.00
51356,14.00
51372,244.00
51388,684.00
51403,1024.00
51419,1024.00
51435,1024.00
51451,1024.00
51467,1024.00
51482,1024.00
51498,1024.00
51514,1024.00
51530,13.00
51546,13.00
51562,12.00
51577,9.00
51593,12.00
51609,13.00
51625,13.00
51641,12.00
51657,15.00
51672,16.00
51688,1024.00
51704,1024.00
51720,1024.00
51736,12.00
51751,12.00
51767,465.00
51783,13.00
51799,13.00
51815,13.00
51830,12.00
51846,12.00
51862,10.00
51878,14.00
51894,10.00
51910,1024.00
51925,1024.00
51941,1024.00
51957,15.00
51973,1024.00
51989,1024.00
52005,1024.00
52020,1024.00
52036,1024.00
52052,1024.00
52068,930.00
52084,447.00
52099,12.00
52115,14.00
52131,13.00
52147,12.00
52163,14.00
52179,14.00
52194,1024.00
52210,197.00
52226,442.00
52242,304.00
52258,524.00
52273,917.00
52289,1024.00
52305,1024.00
52321,1024.00
52337,1024.00
52353,1024.00
52368,1024.00
52384,1024.00
52400,1024.00
52416,14.00
52432,14.00
52447,13.00
52463,1024.00
52479,1024.00
52495,462.00
52511,548.00
52527,531.00
52542,532.00
52558,542.00
52574,541.00
52590,517.00
52606,530.00
52621,534.00
52637,18.00
52653,1024.00
52669,1024.00
52685,17.00
52701,18.00
52716,581.00
52732,1024.00
52748,1024.00
52764,1024.00
52780,535.00
52795,536.00
52811,540.00
52827,548.00
52843,541.00
52859,537.00
52875,531.00
52890,533.00
52906,703.00
52922,188.00
52938,1024.00
52954,1024.00
52969,1024.00
52985,1024.00
53001,1024.00
53017,1024.00
53033,1024.00
53046,1024.00
53064,656.00
53080,1024.00
53096,1024.00
53112,1024.00
53128,937.00
53143,1024.00
53159,584.00
53175,544.00
53191,522.00
53207,543.00
53222,538.00
53238,543.00
53254,541.00
53270,529.00
53286,531.00
53302,473.00
53317,15.00
53333,1024.00
53349,526.00
53365,1024.00
53381,1024.00
53396,1024.00
53412,1024.00
53426,1024.00
53444,1024.00
53460,1024.00
53475,1024.00
53491,20.00
53507,1024.00
53523,1024.00
53539,1024.00
53554,1024.00
53570,1024.00
53586,1024.00
53602,1024.00
53618,1004.00
53634,1024.00
53649,1024.00
53665,1024.00
53681,1024.00
53697,1024.00
53713,1024.00
53728,276.00
53744,15.00
53760,17.00
53776,18.00
53792,16.00
53808,15.00
53823,536.00
53839,524.00
53855,544.00
53871,542.00
53887,541.00
53902,538.00
53918,525.00
53934,533.00
53950,1024.00
53966,1024.00
53981,1024.00
53997,498.00
54013,17.00
54029,1024.00
54045,94.00
54061,987.00
54076,1024.00
54092,1024.00
54108,1024.00
54124,426.00
54140,537.00
54156,537.00
54171,548.00
54187,526.00
54203,536.00
54219,531.00
54235,516.00
54250,547.00
54266,547.00
54282,612.00
54298,17.00
54314,14.00
54329,15.00
54345,892.00
54361,1024.00
54377,1024.00
54393,1024.00
54409,1024.00
54424,1024.00
54440,1024.00
54456,696.00
54472,389.00
54488,705.00
54503,1024.00
54519,1024.00
54535,1024.00
54551,1024.00
54567,27.00
54583,15.00
54598,444.00
54614,1024.00
54630,1024.00
54646,14.00
54662,16.00
54678,1024.00
54693,1024.00
54709,1024.00
54725,1024.00
54741,15.00
54757,13.00
54772,905.00
54788,942.00
54804,12.00
54820,14.00
54836,14.00
54852,12.00
54867,14.00
54883,14.00
54899,1024.00
54915,1024.00
54931,206.00
54946,576.00
54962,547.00
54978,429.00
54994,1024.00
55010,1024.00
55024,1024.00
55041,857.00
55057,19.00
55073,458.00
55089,476.00
55105,1024.00
55120,1024.00
55136,17.00
55152,16.00
55168,584.00
55184,1024.00
55200,1005.00
55215,485.00
55231,529.00
55247,546.00
55263,534.00
55279,525.00
55294,524.00
55310,532.00
55326,532.00
55342,426.00
55358,696.00
55374,916.00
55389,1024.00
55405,1024.00
55421,1024.00
55437,1024.00
55453,1024.00
55468,1024.00
55484,1024.00
55500,1024.00
55516,1024.00
55532,1024.00
55548,1024.00
55563,1024.00
55579,1024.00
134108,440.00
134122,456.00
134132,501.00
134142,596.00
134152,452.00
134163,463.00
134173,401.00
134183,342.00
134194,199.00
134205,93.00
134215,171.00
134225,470.00
134235,609.00
134487,445.00
134498,406.00
134508,316.00
134518,306.00
134528,631.00
134538,720.00
134756,92.00
134769,388.00
134779,530.00
134789,681.00
134799,374.00
134810,12.00
134820,190.00
134830,732.00
134841,823.00
134851,751.00
134862,677.00
134873,514.00
134942,831.00
134955,754.00
134965,732.00
134975,836.00
134985,837.00
134995,561.00
135005,366.00
135016,187.00
135027,14.00
135037,76.00
135047,192.00
135058,133.00
135068,348.00
135078,810.00
135088,1024.00
135098,824.00
135109,529.00
135120,909.00
135130,1024.00
135140,506.00
135150,122.00
135161,195.00
135171,336.00
135181,330.00
135191,339.00
135201,306.00
135211,364.00
135221,421.00
135231,617.00
135241,771.00
135251,554.00
135261,337.00
135271,627.00
135281,821.00
135291,883.00
135301,810.00
135311,555.00
135321,483.00
135331,605.00
135341,598.00
135351,677.00
135361,708.00
135371,584.00
135381,636.00
135391,596.00
135401,463.00
135411,488.00
135421,640.00
135431,616.00
135441,528.00
135451,605.00
135461,630.00
135471,607.00
135481,581.00
135491,460.00
135505,181.00
135521,382.00
135537,740.00
135552,744.00
135568,998.00
135583,420.00
135600,185.00
135616,98.00
135632,14.00
135647,106.00
135663,476.00
135679,140.00
135695,567.00
135711,624.00
135726,937.00
135741,981.00
135758,973.00
135774,1024.00
135790,1024.00
135805,1024.00
135821,449.00
135837,114.00
135853,12.00
135869,376.00
135885,1024.00
135900,858.00
135916,1001.00
135932,954.00
135948,821.00
135964,802.00
135979,553.00
135995,413.00
136011,944.00
136027,122.00
136043,44.00
136059,312.00
136074,510.00
136090,682.00
136106,499.00
136122,176.00
136138,329.00
136153,568.00
136168,475.00
136185,409.00
136201,232.00
136217,262.00
136233,172.00
136248,259.00
136264,436.00
136280,393.00
136296,285.00
136312,484.00
136327,571.00
136343,385.00
136359,449.00
136375,674.00
136391,703.00
136407,517.00
136422,393.00
136438,564.00
136454,1024.00
136470,306.00
136486,219.00
136501,360.00
136517,296.00
136533,471.00
136549,320.00
136565,145.00
136581,44.00
136596,231.00
136612,531.00
136628,612.00
136644,598.00
136660,605.00
136676,626.00
136691,615.00
136707,602.00
136723,620.00
136739,648.00
136755,621.00
136770,645.00
136786,677.00
136802,727.00
136818,627.00
136833,569.00
136849,546.00
136865,537.00
136881,524.00
136897,1024.00
136913,473.00
136929,284.00
136944,473.00
136960,530.00
136976,548.00
136992,570.00
137008,628.00
137023,703.00
137039,781.00
137055,848.00
137071,795.00
137087,726.00
137103,604.00
137118,569.00
137134,511.00
137150,496.00
137166,476.00
137182,471.00
137300,402.00
137310,405.00
137320,363.00
137330,581.00
137340,865.00
137350,673.00
137360,152.00
137370,151.00
137380,260.00
137390,357.00
137400,458.00
137461,632.00
137472,686.00
137482,745.00
137493,769.00
137503,758.00
137626,505.00
137637,507.00
137647,493.00
137657,533.00
137667,544.00
137678,604.00
137689,570.00
137700,523.00
137711,518.00
137722,495.00
137732,507.00
137743,496.00
137753,474.00
137763,553.00
137773,823.00
137784,965.00
137794,386.00
137804,238.00
137814,268.00
137824,322.00
137834,414.00
137844,495.00
137854,528.00
137865,562.00
137876,567.00
137887,593.00
137897,644.00
137907,702.00
137918,800.00
137928,868.00
137938,865.00
137948,807.00
137958,752.00
137973,685.00
137988,626.00
138004,569.00
138020,540.00
138036,570.00
138052,606.00
138067,629.00
138084,603.00
138099,601.00
138115,585.00
138131,478.00
138147,420.00
138162,393.00
138178,377.00
138194,438.00
138210,940.00
138226,413.00
138241,16.00
138257,224.00
138273,422.00
138289,518.00
138305,501.00
138321,488.00
138336,505.00
138352,600.00
138368,648.00
138384,619.00
138400,553.00
138415,470.00
138431,415.00
138447,425.00
138463,449.00
138479,453.00
138494,398.00
138510,403.00
138526,465.00
138542,499.00
138558,507.00
138574,396.00
138589,379.00
138605,422.00
138621,384.00
138637,557.00
138653,1024.00
138668,243.00
138684,225.00
138700,438.00
138716,498.00
138732,540.00
138748,537.00
138763,615.00
138779,698.00
138795,806.00
138811,809.00
138827,749.00
138842,670.00
138858,582.00
138874,524.00
138890,494.00
138906,482.00
138922,441.00
138937,422.00
138953,429.00
138969,446.00
138985,499.00
139001,534.00
139017,480.00
139032,500.00
139048,502.00
139064,466.00
139080,610.00
139096,1024.00
139111,229.00
139127,267.00
139143,460.00
139159,509.00
139175,544.00
139190,540.00
139206,567.00
139222,644.00
139238,759.00
139254,740.00
139270,673.00
139285,596.00
139301,513.00
139317,462.00
139333,486.00
139349,543.00
139364,532.00
139380,581.00
139396,667.00
139412,666.00
139428,666.00
139444,660.00
139459,690.00
139475,741.00
139491,744.00
139507,704.00
139523,763.00
139538,1024.00
139554,488.00
139570,284.00
139586,403.00
139602,502.00
139618,414.00
139633,231.00
139649,374.00
139665,577.00
139681,681.00
139697,657.00
139712,684.00
139728,607.00
139744,494.00
139760,333.00
139776,128.00
139792,247.00
139807,484.00
139823,509.00
139839,433.00
139855,454.00
139871,468.00
139886,409.00
139902,313.00
139918,372.00
139934,387.00
139950,340.00
139966,432.00
139981,906.00
139997,205.00
140013,110.00
140029,274.00
140045,317.00
140060,348.00
140076,304.00
140092,399.00
140108,369.00
140124,509.00
140140,571.00
140155,576.00
140171,617.00
140187,685.00
140203,784.00
140219,710.00
140234,548.00
140250,336.00
140266,208.00
140282,316.00
140298,377.00
140314,553.00
140329,649.00
140345,596.00
140361,530.00
140377,497.00
140393,486.00
140408,597.00
140424,1024.00
140440,324.00
140456,282.00
140472,488.00
140488,664.00
140503,752.00
140519,721.00
140535,610.00
140551,619.00
140567,666.00
140582,646.00
140598,640.00
140614,658.00
140630,654.00
140646,626.00
140662,616.00
140677,586.00
140693,460.00
140709,526.00
140725,616.00
140741,618.00
140756,628.00
140771,544.00
140788,447.00
140804,454.00
140820,475.00
140835,404.00
140851,670.00
140867,893.00
140883,159.00
140899,281.00
140915,456.00
140930,525.00
140946,529.00
140962,516.00
140978,650.00
140994,728.00
141009,799.00
141025,760.00
141041,682.00
141057,651.00
141073,598.00
141089,602.00
141104,564.00
141120,560.00
141136,530.00
141152,514.00
141168,579.00
141183,649.00
141199,667.00
141215,566.00
141231,492.00
141247,426.00
141263,379.00
141278,484.00
141294,1000.00
141310,484.00
141326,192.00
141342,422.00
141357,540.00
141373,787.00
141536,826.00
141546,840.00
141556,1015.00
141566,993.00
141576,798.00
141586,692.00
141596,565.00
141606,573.00
141616,341.00
141626,14.00
141636,16.00
141646,16.00
141656,14.00
141666,16.00
141677,16.00
141857,233.00
141871,471.00
141882,732.00
141892,838.00
141903,856.00
141913,821.00
141923,679.00
141934,694.00
141944,584.00
141954,522.00
141964,533.00
141975,562.00
141986,538.00
141996,571.00
142006,653.00
142016,688.00
142026,728.00
142036,798.00
142047,846.00
142057,860.00
142067,792.00
142077,677.00
142088,679.00
142098,662.00
142108,578.00
142118,579.00
142128,566.00
142138,507.00
142149,524.00
142159,909.00
142169,1024.00
142179,1024.00
142447,14.00
142458,14.00
142468,13.00
142478,12.00
142488,13.00
142498,424.00
142508,630.00
142518,570.00
142528,545.00
142538,632.00
142548,698.00
142558,747.00
142568,456.00
142686,15.00
142697,16.00
142707,14.00
142717,15.00
142728,157.00
142739,433.00
142750,589.00
142761,704.00
142771,691.00
142782,670.00
142792,665.00
142802,610.00
142812,558.00
142822,540.00
142833,606.00
142844,565.00
142855,501.00
142866,565.00
142876,582.00
142886,654.00
142896,666.00
142906,692.00
142917,688.00
142927,697.00
142937,729.00
142947,760.00
142957,704.00
142967,641.00
142977,603.00
142988,560.00
142998,591.00
143008,564.00
143018,593.00
143028,782.00
143038,1024.00
143048,1024.00
143059,619.00
143069,388.00
143079,452.00
143089,564.00
143100,630.00
143110,600.00
143120,542.00
143130,595.00
143140,619.00
143150,630.00
143161,775.00
143171,841.00
143181,868.00
143191,894.00
143201,868.00
143211,825.00
143221,764.00
143231,754.00
143241,735.00
143251,686.00
143261,646.00
143271,594.00
143287,651.00
143303,676.00
143319,732.00
143335,784.00
143350,770.00
143366,752.00
143382,673.00
143398,694.00
143414,608.00
143429,569.00
143445,449.00
143461,450.00
143477,896.00
143493,498.00
143509,97.00
143524,260.00
143540,532.00
143556,536.00
143572,256.00
143588,261.00
143603,436.00
143619,641.00
143635,1024.00
143651,1024.00
143667,1024.00
143683,1024.00
143698,1024.00
143714,1024.00
143730,758.00
143746,655.00
143762,422.00
143777,824.00
143793,762.00
143809,480.00
143825,273.00
143841,204.00
143857,15.00
143872,16.00
143888,14.00
143904,16.00
143920,243.00
143936,631.00
143951,16.00
143967,16.00
143983,13.00
143999,13.00
144015,15.00
144031,176.00
144046,178.00
144062,345.00
144078,505.00
144094,447.00
144110,370.00
144125,439.00
144141,364.00
144157,352.00
144173,356.00
144188,293.00
144204,331.00
144220,353.00
144236,314.00
144252,139.00
144268,132.00
144284,14.00
144299,14.00
144315,16.00
144331,16.00
144347,279.00
144363,280.00
144378,530.00
144394,1024.00
144410,307.00
144426,243.00
144442,506.00
144458,770.00
144473,867.00
144489,1024.00
144505,1024.00
144521,1024.00
144537,1024.00
144552,1024.00
144568,1024.00
144584,984.00
144600,783.00
144616,753.00
144632,704.00
144647,724.00
144663,741.00
144679,809.00
144695,802.00
144711,802.00
144726,722.00
144742,1018.00
144758,939.00
144774,1024.00
144790,849.00
144806,685.00
144821,646.00
144837,426.00
144853,366.00
144869,937.00
144885,530.00
144900,171.00
144954,649.00
144966,698.00
144977,608.00
144988,473.00
144998,457.00
145008,534.00
145018,658.00
145029,668.00
145043,620.00
145059,532.00
145138,210.00
145151,211.00
145161,256.00
145171,165.00
145181,139.00
145191,186.00
145201,246.00
145212,224.00
145222,225.00
145233,297.00
145243,452.00
145253,565.00
145264,552.00
145280,576.00
145342,733.00
145352,890.00
145362,380.00
145372,17.00
145382,15.00
145392,19.00
145403,238.00
145423,592.00
145433,688.00
145443,709.00
145454,745.00
145470,750.00
145486,810.00
145501,821.00
145517,880.00
145533,871.00
145549,734.00
145565,636.00
145581,546.00
145596,522.00
145612,558.00
145628,566.00
145644,403.00
145660,357.00
145675,373.00
145691,427.00
145707,433.00
145723,524.00
145739,550.00
145755,486.00
145771,425.00
145786,578.00
145802,662.00
145818,897.00
145833,1024.00
145849,1024.00
145865,545.00
145881,511.00
145897,476.00
145913,687.00
145928,844.00
145944,869.00
145960,866.00
145976,970.00
145992,1022.00
146008,973.00
146023,844.00
146039,651.00
146055,473.00
146071,254.00
146087,254.00
146102,186.00
146118,174.00
146134,262.00
146150,403.00
146166,504.00
146182,412.00
146197,328.00
146213,250.00
146229,139.00
146245,81.00
146261,165.00
146276,208.00
146292,132.00
146308,612.00
146324,961.00
146340,284.00
146355,211.00
146371,257.00
146387,486.00
146403,628.00
146418,592.00
146435,469.00
146450,476.00
146466,666.00
146482,795.00
146498,761.00
146514,643.00
146529,547.00
146545,449.00
146561,390.00
146577,340.00
146593,292.00
146609,180.00
146624,146.00
146640,250.00
146656,317.00
146672,550.00
146688,656.00
146703,631.00
146719,540.00
146735,386.00
146751,380.00
146767,402.00
146783,484.00
146798,794.00
146813,727.00
146830,18.00
146846,280.00
146862,482.00
146877,592.00
146893,753.00
146909,933.00
146925,898.00
146941,910.00
146956,982.00
146972,980.00
146988,950.00
147004,1024.00
147020,1024.00
147036,946.00
147051,771.00
147067,542.00
147083,566.00
147099,448.00
147115,432.00
147130,489.00
147146,566.00
147162,571.00
147178,660.00
147194,772.00
147210,821.00
147225,855.00
147241,646.00
147257,305.00
147273,118.00
147289,508.00
147304,495.00
147320,161.00
147336,307.00
147352,182.00
147368,19.00
147384,17.00
147399,624.00
147415,1024.00
147431,974.00
147447,643.00
147463,594.00
147478,379.00
147494,168.00
147510,86.00
147526,181.00
147542,336.00
147558,428.00
147573,433.00
147589,354.00
147605,233.00
147621,219.00
147697,546.00
147709,452.00
147720,393.00
147730,392.00
147741,402.00
147751,409.00
147761,504.00
147772,848.00
147783,1024.00
147793,698.00
147803,261.00
147814,250.00
147876,618.00
147889,649.00
147900,728.00
147910,821.00
147921,843.00
147932,841.00
147943,837.00
147953,778.00
148008,572.00
148021,591.00
148032,646.00
148043,649.00
148054,679.00
148065,653.00
148076,591.00
148086,490.00
148096,414.00
148107,399.00
148118,348.00
148128,397.00
148143,561.00
148159,624.00
148174,628.00
148190,604.00
148206,590.00
148222,490.00
148238,340.00
148253,769.00
148269,654.00
148285,52.00
148301,308.00
148317,472.00
148333,400.00
148348,313.00
148364,314.00
148380,394.00
148396,628.00
148412,756.00
148428,699.00
148443,627.00
148459,566.00
148475,486.00
148491,474.00
148507,494.00
148522,472.00
148538,472.00
148554,534.00
148570,641.00
148586,828.00
148602,941.00
148617,938.00
148633,807.00
148649,636.00
148665,516.00
148681,480.00
148696,445.00
148712,523.00
148728,811.00
148744,1024.00
148760,328.00
148776,391.00
148791,506.00
148807,545.00
148823,433.00
148839,376.00
148855,372.00
148869,511.00
148886,681.00
148902,789.00
148918,853.00
148934,797.00
148949,713.00
148965,653.00
148981,613.00
148997,574.00
149013,604.00
149029,557.00
149044,526.00
149060,356.00
149076,160.00
149092,99.00
149108,16.00
149123,348.00
149139,496.00
149155,511.00
149171,469.00
149187,583.00
149203,541.00
149218,761.00
149234,638.00
149250,15.00
149266,14.00
149282,148.00
149298,399.00
149313,400.00
149329,403.00
149345,428.00
149361,528.00
149377,666.00
149392,672.00
149408,636.00
149424,535.00
149440,401.00
149456,391.00
149472,310.00
149487,329.00
149503,369.00
149519,387.00
149535,374.00
149551,380.00
149566,451.00
149582,507.00
149598,471.00
149614,376.00
149630,365.00
149646,424.00
149661,494.00
149677,521.00
149693,979.00
149709,554.00
149725,213.00
149740,416.00
149756,559.00
149772,594.00
149788,625.00
149804,685.00
149820,741.00
149835,879.00
149851,975.00
149867,961.00
149883,855.00
149899,790.00
149915,836.00
149930,889.00
149946,866.00
149962,811.00
149978,844.00
149994,848.00
150009,938.00
150025,987.00
150041,903.00
150057,945.00
150073,859.00
150089,627.00
150104,363.00
150120,330.00
150136,325.00
150152,282.00
150168,761.00
150202,183.00
150214,331.00
150224,494.00
150234,486.00
150247,506.00
150299,422.00
150309,494.00
150319,582.00
150329,678.00
150339,738.00
150349,768.00
150360,742.00
150373,715.00
150499,590.00
150510,555.00
150520,569.00
150530,578.00
150540,557.00
150550,530.00
150561,477.00
150571,365.00
150581,285.00
150591,397.00
150601,446.00
150611,492.00
150621,496.00
150631,440.00
150641,364.00
150651,379.00
150661,548.00
150671,622.00
150682,15.00
150693,15.00
150705,15.00
150721,18.00
150737,16.00
150753,14.00
150769,153.00
150784,261.00
150800,364.00
150816,424.00
150832,462.00
150848,321.00
150864,288.00
150879,68.00
150897,14.00
150911,16.00
150928,14.00
150943,14.00
150958,243.00
150974,357.00
150990,486.00
151006,608.00
151022,650.00
151038,678.00
151053,677.00
151069,588.00
151085,608.00
151101,615.00
151117,637.00
151132,675.00
151148,1024.00
151164,744.00
151180,376.00
151196,536.00
151211,673.00
151227,723.00
151243,780.00
151259,866.00
151275,904.00
151291,957.00
151306,954.00
151322,1002.00
151338,949.00
151354,866.00
151370,836.00
151386,782.00
151401,804.00
151417,789.00
151433,728.00
151449,677.00
151465,825.00
151480,986.00
151496,1024.00
151512,1024.00
151528,910.00
151544,679.00
151560,629.00
151575,562.00
151591,535.00
151607,444.00
151623,569.00
151639,1024.00
151654,365.00
151670,144.00
151686,331.00
151702,451.00
151718,528.00
151734,498.00
151748,524.00
151765,534.00
151780,684.00
151797,782.00
151813,738.00
151828,614.00
151844,516.00
151860,456.00
151876,387.00
151892,399.00
151908,488.00
151923,546.00
151939,516.00
151955,486.00
151971,438.00
151986,413.00
152002,374.00
152018,364.00
152034,285.00
152050,213.00
152066,212.00
152081,328.00
152097,328.00
152113,309.00
152129,704.00
152145,529.00
152160,16.00
152176,15.00
152192,17.00
152208,150.00
152224,18.00
152240,147.00
152255,291.00
152271,561.00
152287,712.00
152303,556.00
152318,469.00
152334,388.00
152350,334.00
152365,308.00
152382,316.00
152398,401.00
152414,439.00
152429,409.00
152445,384.00
152461,369.00
152477,476.00
152493,581.00
152508,748.00
152524,866.00
152540,844.00
152556,714.00
152572,626.00
152588,525.00
152603,506.00
152619,758.00
152635,1024.00
152651,280.00
152667,233.00
152682,421.00
152698,537.00
152714,537.00
152730,532.00
152746,637.00
152762,769.00
152777,924.00
152793,1024.00
152809,1001.00
152825,874.00
152841,778.00
152856,844.00
152872,961.00
152888,988.00
152904,1024.00
152920,950.00
152936,619.00
152951,478.00
152967,486.00
152983,569.00
152998,624.00
153015,807.00
153029,772.00
153046,531.00
153062,550.00
153078,618.00
153094,448.00
153109,591.00
153125,907.00
153141,16.00
153157,16.00
153234,525.00
153245,436.00
153255,345.00
153265,328.00
153275,529.00
153285,617.00
153295,476.00
153305,211.00
153315,73.00
153325,402.00
153335,769.00
153347,891.00
153361,688.00
153378,249.00
153394,185.00
153410,952.00
153425,1024.00
153441,661.00
153457,495.00
153473,530.00
153488,439.00
153505,480.00
153520,236.00
153536,14.00
153552,14.00
153567,16.00
153583,31.00
153599,835.00
153615,1024.00
153631,342.00
153647,377.00
153662,542.00
153677,555.00
153694,541.00
153710,428.00
153725,187.00
153742,52.00
153757,14.00
153773,114.00
153789,105.00
153805,367.00
153821,432.00
153837,282.00
153852,446.00
153867,555.00
153884,606.00
153899,640.00
153916,792.00
153930,792.00
153947,768.00
153963,824.00
153978,916.00
153995,1024.00
154010,905.00
154025,687.00
154042,868.00
154058,796.00
154074,831.00
154089,1024.00
154105,816.00
154121,530.00
154137,654.00
154153,569.00
154168,585.00
154220,1022.00
154231,1000.00
154241,1001.00
154251,999.00
154261,1024.00
154271,1024.00
154281,1024.00
154294,1024.00
154310,1024.00
154326,1024.00
154342,1024.00
154358,531.00
154374,308.00
154390,16.00
154405,18.00
154421,17.00
154436,17.00
154453,17.00
154468,17.00
154483,1024.00
154500,159.00
154515,17.00
154532,17.00
154548,147.00
154563,609.00
154579,18.00
154594,26.00
155798,672.00
155811,729.00
155821,765.00
155831,796.00
155841,878.00
155851,881.00
155861,820.00
155871,786.00
155881,728.00
155891,738.00
155901,811.00
155912,830.00
155922,880.00
155932,1024.00
155942,1024.00
155952,1024.00
155962,859.00
155972,542.00
155983,673.00
155993,797.00
156003,784.00
156013,662.00
156023,525.00
156033,447.00
156043,445.00
156054,619.00
156064,722.00
156074,758.00
156084,826.00
156094,866.00
156105,878.00
156115,853.00
156125,809.00
156135,747.00
156145,729.00
156156,662.00
156166,576.00
156176,600.00
156186,589.00
156196,553.00
156206,542.00
156216,488.00
156226,463.00
156236,416.00
156246,377.00
156256,352.00
156266,358.00
156276,379.00
156286,432.00
156296,439.00
156306,447.00
156316,432.00
156326,384.00
156336,340.00
156346,312.00
156356,312.00
156366,366.00
156376,318.00
156386,427.00
156396,712.00
156412,634.00
156427,16.00
156444,79.00
156459,226.00
156475,193.00
156491,265.00
156507,373.00
156522,377.00
156538,507.00
156553,711.00
156569,766.00
156586,653.00
156601,585.00
156618,470.00
156631,385.00
156649,380.00
156665,486.00
156681,458.00
156697,458.00
156712,444.00
156728,464.00
156743,438.00
156759,565.00
156773,692.00
156791,543.00
156807,391.00
156823,315.00
156839,337.00
156854,446.00
156870,1024.00
156886,735.00
156902,295.00
156918,508.00
156933,548.00
156949,480.00
156965,391.00
156980,470.00
156996,450.00
157013,609.00
157028,604.00
157044,639.00
157060,714.00
157076,605.00
157090,533.00
157107,547.00
157121,533.00
157139,570.00
157154,627.00
157171,604.00
157185,593.00
157201,608.00
157217,634.00
157234,652.00
157249,612.00
157265,592.00
157281,567.00
157296,561.00
157312,514.00
157328,820.00
157342,1024.00
157359,233.00
157375,217.00
157391,370.00
157406,446.00
157422,451.00
157439,361.00
157454,442.00
157470,555.00
157486,593.00
157502,508.00
157518,384.00
157533,421.00
157550,524.00
157564,561.00
157580,615.00
157597,694.00
157613,729.00
157629,529.00
157644,184.00
157659,135.00
157676,81.00
157692,218.00
157707,257.00
157722,64.00
157739,250.00
157753,661.00
157770,922.00
157786,918.00
157802,1024.00
157818,859.00
157834,127.00
157850,309.00
157865,497.00
157881,653.00
157896,512.00
157911,474.00
157929,642.00
157944,800.00
157959,1024.00
157976,1024.00
157992,1024.00
158008,1024.00
158023,853.00
158039,506.00
158055,471.00
158071,506.00
158087,365.00
158103,424.00
158118,516.00
158134,423.00
158150,370.00
158166,404.00
158181,329.00
158196,230.00
158213,189.00
158228,242.00
158244,312.00
158261,500.00
158276,1024.00
158291,1024.00
158308,223.00
158324,398.00
158339,517.00
158355,664.00
158371,530.00
158387,232.00
158403,105.00
158419,16.00
158434,99.00
158449,457.00
158466,900.00
158482,835.00
158498,391.00
158514,339.00
158529,464.00
158544,303.00
158561,316.00
158577,390.00
158593,380.00
158608,552.00
158624,656.00
158639,921.00
158656,670.00
158672,421.00
158687,328.00
158703,321.00
158719,209.00
158735,517.00
158751,703.00
158767,16.00
158782,193.00
158798,531.00
158814,514.00
158829,567.00
158846,622.00
158860,715.00
158877,847.00
158893,744.00
158909,666.00
158924,812.00
158940,1024.00
158955,1024.00
158971,1024.00
158988,1024.00
159004,748.00
159018,345.00
159035,312.00
159050,458.00
159067,622.00
159083,895.00
159098,667.00
159114,572.00
159129,605.00
159146,401.00
159162,381.00
159176,429.00
159193,766.00
159209,1024.00
159224,156.00
159241,241.00
159254,422.00
159272,189.00
159288,91.00
159304,219.00
159319,541.00
159334,710.00
159350,794.00
159367,676.00
159383,638.00
159399,547.00
159414,566.00
159430,704.00
159446,746.00
159462,720.00
159478,591.00
159492,438.00
159509,370.00
159525,116.00
159541,13.00
159557,13.00
159572,13.00
159588,428.00
159603,641.00
159620,593.00
159635,499.00
159651,718.00
159666,970.00
159683,14.00
159698,15.00
159715,129.00
159729,367.00
159745,721.00
159762,860.00
159777,1024.00
159794,1024.00
159808,1024.00
159825,849.00
159841,816.00
159857,1024.00
159873,1024.00
159888,949.00
159903,895.00
159919,18.00
159936,17.00
159952,1024.00
159967,852.00
159983,152.00
159999,313.00
160015,843.00
160030,921.00
160047,648.00
160062,517.00
160078,208.00
160093,1024.00
160110,1024.00
160125,1024.00
160141,1024.00
160157,1024.00
160172,604.00
160189,230.00
160205,413.00
160219,16.00
160236,18.00
160251,16.00
160268,17.00
160282,18.00
160298,77.00
160315,16.00
160330,17.00
160347,17.00
160361,14.00
160377,387.00
160393,356.00
160410,257.00
160426,16.00
160441,91.00
160457,157.00
160473,543.00
160489,468.00
160505,266.00
160519,314.00
160536,1024.00
160552,1024.00
160568,292.00
160583,332.00
160600,590.00
160614,739.00
160631,814.00
160647,927.00
160663,1024.00
160678,1024.00
160694,1024.00
160709,1024.00
160725,1024.00
160794,908.00
160808,920.00
160819,912.00
160829,989.00
160839,1024.00
160850,1003.00
160860,957.00
160870,939.00
160880,1002.00
160890,1024.00
160900,1011.00
160916,1024.00
160931,812.00
160947,732.00
160963,805.00
160979,1024.00
160995,864.00
161011,128.00
161026,195.00
161042,321.00
161058,354.00
161074,315.00
161090,214.00
161105,248.00
161121,361.00
161137,441.00
161152,505.00
161169,429.00
161184,223.00
161200,88.00
161216,19.00
161232,15.00
161248,54.00
161264,169.00
161279,169.00
161295,236.00
161311,364.00
161326,327.00
161343,326.00
161357,276.00
161374,246.00
161390,92.00
161406,339.00
161422,375.00
161437,12.00
161453,13.00
161469,197.00
161485,473.00
161501,319.00
161517,15.00
161532,13.00
161548,221.00
161564,451.00
161580,450.00
161596,987.00
161611,717.00
161626,1023.00
161643,796.00
161659,759.00
161675,684.00
163067,361.00
163081,259.00
163091,246.00
163102,205.00
163113,252.00
163123,269.00
163133,260.00
163143,420.00
163154,794.00
163164,826.00
163175,69.00
163185,16.00
163379,996.00
163390,531.00
163400,277.00
163410,148.00
163420,220.00
163430,207.00
163440,121.00
163450,100.00
163460,38.00
163470,60.00
163480,97.00
163705,744.00
163717,652.00
163727,634.00
163737,604.00
163748,592.00
163758,688.00
163768,696.00
163778,550.00
163789,341.00
163800,204.00
163810,181.00
163820,259.00
163831,319.00
163842,303.00
163871,409.00
163883,538.00
163894,560.00
163904,577.00
163915,724.00
163926,752.00
163936,684.00
163947,631.00
163957,577.00
163967,493.00
163977,417.00
163988,429.00
163998,504.00
164008,509.00
164018,433.00
164028,340.00
164038,514.00
164049,857.00
164059,784.00
164069,122.00
164079,27.00
164089,246.00
164099,458.00
164109,588.00
164120,689.00
164130,739.00
164140,732.00
164151,739.00
164162,869.00
164172,856.00
164182,723.00
164193,826.00
164204,866.00
164214,847.00
164224,846.00
164234,889.00
164244,742.00
164254,696.00
164264,775.00
164274,806.00
164284,940.00
164294,1008.00
164304,1024.00
164314,1024.00
164324,934.00
164334,668.00
164344,422.00
164354,259.00
164364,88.00
164376,14.00
164393,10.00
164408,12.00
164425,345.00
164440,579.00
164455,553.00
164472,308.00
164487,529.00
164504,945.00
164519,290.00
164534,205.00
164551,536.00
164565,506.00
164582,566.00
164598,436.00
164614,746.00
164629,1024.00
164646,1024.00
164662,1024.00
164677,1024.00
164692,953.00
164709,363.00
164725,396.00
164740,936.00
164756,785.00
164771,458.00
164788,16.00
164804,15.00
164820,804.00
164835,949.00
164851,592.00
164867,566.00
164883,989.00
164899,1024.00
164913,903.00
164930,1024.00
164946,1024.00
164962,1024.00
164978,214.00
164994,39.00
165009,16.00
165025,17.00
165040,19.00
165057,19.00
165073,18.00
165087,19.00
165104,1024.00
165120,1024.00
165136,18.00
165152,18.00
165166,15.00
165183,17.00
165199,15.00
165215,18.00
165231,18.00
165246,161.00
165262,1024.00
165278,713.00
165294,705.00
165310,505.00
165326,376.00
165341,67.00
165357,366.00
165372,411.00
165388,1024.00
165405,578.00
165419,435.00
165436,633.00
165452,725.00
165468,864.00
165484,855.00
165498,991.00
165515,1024.00
165530,1024.00
165547,981.00
165562,1024.00
165577,992.00
165594,1023.00
165609,888.00
165626,961.00
165642,820.00
165656,738.00
165673,818.00
165688,751.00
165705,790.00
165721,808.00
165736,829.00
165751,709.00
165768,553.00
165784,433.00
165800,346.00
165815,717.00
165831,1024.00
165847,292.00
165863,354.00
165878,499.00
165893,766.00
165910,768.00
165925,678.00
165942,613.00
165957,588.00
165973,746.00
165989,820.00
166005,793.00
166021,750.00
166036,598.00
166052,405.00
166068,409.00
166083,358.00
166100,321.00
166116,412.00
166131,368.00
166147,332.00
166163,300.00
166179,295.00
166195,330.00
166210,561.00
166225,330.00
166242,471.00
166258,993.00
166273,267.00
166290,15.00
166304,16.00
166320,146.00
166336,225.00
166352,182.00
166368,25.00
166383,16.00
166400,14.00
166416,394.00
166432,351.00
166445,129.00
166463,14.00
166479,231.00
166495,291.00
166509,257.00
166526,325.00
166541,378.00
166558,485.00
166574,813.00
166673,305.00
166684,448.00
166695,785.00
166705,897.00
166716,276.00
166727,163.00
166738,354.00
166749,493.00
166760,576.00
166771,607.00
166781,657.00
166822,750.00
166834,810.00
166845,910.00
166856,1016.00
166867,1009.00
166878,933.00
166889,861.00
166900,789.00
166911,766.00
166921,734.00
166932,706.00
167039,589.00
167053,605.00
167063,624.00
167073,634.00
167083,633.00
167093,605.00
167103,593.00
167113,592.00
167123,817.00
167133,1024.00
167144,1024.00
167154,650.00
167164,361.00
167174,403.00
167184,504.00
167195,529.00
167205,526.00
167215,459.00
167225,373.00
167238,319.00
167252,420.00
167268,667.00
167284,749.00
167301,837.00
167316,867.00
167332,811.00
167348,778.00
167363,696.00
167378,580.00
167395,624.00
167411,666.00
167427,761.00
167442,668.00
167458,596.00
167473,606.00
167489,581.00
167506,595.00
167522,593.00
167538,334.00
167554,194.00
167569,653.00
167584,644.00
167600,10.00
167616,13.00
167631,92.00
167648,260.00
167663,150.00
167679,51.00
167692,72.00
167711,469.00
167727,600.00
167743,608.00
167759,556.00
167775,478.00
167789,409.00
167805,325.00
167821,307.00
167838,286.00
167853,344.00
167869,454.00
167885,566.00
167900,557.00
167917,626.00
167933,481.00
167948,442.00
167963,231.00
167979,496.00
167996,534.00
168012,1024.00
168027,978.00
168043,294.00
168059,469.00
168075,651.00
168090,702.00
168106,704.00
168121,765.00
168138,765.00
168154,892.00
168170,825.00
168184,636.00
168200,750.00
168217,736.00
168232,512.00
168249,344.00
168264,409.00
168279,441.00
168296,471.00
168312,463.00
168328,187.00
168343,61.00
168358,17.00
168374,164.00
168391,573.00
168407,638.00
168422,477.00
168438,252.00
168454,640.00
168469,897.00
168486,42.00
168501,345.00
168515,466.00
168533,612.00
168549,597.00
168564,534.00
168580,482.00
168596,473.00
168612,645.00
168628,886.00
168644,797.00
168659,432.00
168675,669.00
168689,632.00
168707,666.00
168723,706.00
168737,812.00
168754,963.00
168770,986.00
168786,598.00
168802,732.00
168818,841.00
168833,1024.00
168849,1024.00
168865,500.00
168881,633.00
168897,1024.00
168939,14.00
168951,14.00
168962,13.00
168972,16.00
168983,13.00
168994,16.00
169007,17.00
169023,18.00
169039,1024.00
169055,1024.00
169070,1024.00
169086,584.00
169102,341.00
169117,277.00
169133,79.00
169149,13.00
169165,15.00
169181,15.00
169197,1024.00
169213,989.00
169229,532.00
169244,97.00
169260,88.00
169276,337.00
169292,751.00
169308,849.00
169323,952.00
169339,1024.00
169355,654.00
169371,288.00
169387,314.00
169403,441.00
169418,482.00
169434,473.00
169450,529.00
169466,648.00
169482,861.00
169497,924.00
169513,914.00
169529,804.00
169545,601.00
169561,457.00
169576,446.00
169592,390.00
169608,369.00
169624,350.00
169640,375.00
169656,365.00
169671,286.00
169687,157.00
169703,86.00
169719,60.00
169735,68.00
169751,476.00
169766,1024.00
169782,1024.00
169798,867.00
169814,66.00
169830,13.00
169845,15.00
169861,15.00
169877,258.00
169893,510.00
169909,723.00
169925,744.00
169940,772.00
169956,745.00
169972,737.00
169988,690.00
170004,649.00
170019,581.00
170035,556.00
170051,533.00
170067,534.00
170083,537.00
170099,596.00
170114,581.00
170130,513.00
170146,492.00
170162,506.00
170178,529.00
170193,562.00
170209,1024.00
170225,989.00
170241,224.00
170257,474.00
170273,617.00
170288,674.00
170304,674.00
170320,636.00
170336,668.00
170352,769.00
170367,855.00
170383,837.00
170399,749.00
170415,670.00
170431,617.00
170447,548.00
170462,522.00
170478,520.00
170494,547.00
170510,601.00
170526,668.00
170541,700.00
170557,725.00
170573,722.00
170589,806.00
170605,967.00
170621,774.00
170636,900.00
170652,1024.00
170668,744.00
170684,363.00
170700,591.00
170715,540.00
170731,501.00
170747,424.00
170763,382.00
170779,349.00
170795,435.00
170810,464.00
170826,380.00
170842,282.00
170858,190.00
170873,109.00
170889,125.00
170905,166.00
170921,170.00
170937,293.00
170953,360.00
170968,374.00
170983,315.00
171000,250.00
171016,46.00
171032,15.00
171046,162.00
171062,186.00
171079,278.00
171095,798.00
171111,15.00
171127,13.00
171142,10.00
171158,220.00
171174,394.00
182514,15.00
182526,17.00
182536,14.00
182546,15.00
182556,16.00
182566,16.00
182576,13.00
182586,13.00
182596,16.00
182606,15.00
182616,56.00
182626,218.00
182636,314.00
182646,376.00
182656,449.00
182666,504.00
182676,549.00
182686,546.00
182696,571.00
182706,581.00
182716,583.00
182726,584.00
182737,591.00
182748,603.00
182758,577.00
182768,553.00
182778,558.00
182789,629.00
182799,666.00
182809,717.00
182819,777.00
182829,818.00
182840,832.00
182850,817.00
182861,786.00
182871,738.00
182881,713.00
182891,678.00
182901,634.00
182911,643.00
182922,941.00
182932,1024.00
182943,992.00
182953,255.00
182963,161.00
182973,266.00
182984,369.00
182994,414.00
183005,438.00
183015,428.00
183025,435.00
183035,465.00
183045,538.00
183056,621.00
183066,732.00
183076,822.00
183086,746.00
183096,697.00
183106,658.00
183121,580.00
183136,542.00
183152,465.00
183168,487.00
183184,435.00
183200,425.00
183216,390.00
183232,408.00
183248,433.00
183264,465.00
183278,464.00
183294,362.00
183311,248.00
183327,236.00
183341,240.00
183358,505.00
183373,925.00
183390,68.00
183404,51.00
183421,242.00
183437,434.00
183452,486.00
183468,540.00
183485,517.00
183500,660.00
183516,747.00
183532,804.00
183547,771.00
183563,682.00
183579,689.00
183595,708.00
183609,657.00
183627,662.00
183642,603.00
183657,596.00
183674,625.00
183689,574.00
183706,576.00
183722,545.00
183736,430.00
183753,365.00
183769,412.00
183785,477.00
183801,762.00
183816,1024.00
183831,1024.00
183847,758.00
183864,740.00
183880,780.00
183895,814.00
183911,722.00
183927,606.00
183943,613.00
183959,628.00
183975,636.00
183989,549.00
184006,523.00
184022,451.00
184037,377.00
184054,520.00
184069,537.00
184085,436.00
184100,473.00
184117,649.00
184133,582.00
184147,625.00
184164,630.00
184180,541.00
184196,364.00
184212,394.00
184227,294.00
184243,312.00
184259,904.00
184275,590.00
184291,27.00
184304,84.00
184321,256.00
184337,459.00
184354,602.00
184370,517.00
184385,546.00
184401,517.00
184417,629.00
184432,737.00
184449,702.00
184463,560.00
184480,502.00
184496,387.00
184512,243.00
184527,214.00
184543,296.00
184558,401.00
184575,641.00
184590,598.00
184607,612.00
184623,746.00
184637,689.00
184654,350.00
184669,626.00
184686,586.00
184701,747.00
185032,670.00
185046,724.00
185056,736.00
185066,734.00
185076,922.00
185087,1024.00
185097,868.00
185107,1024.00
185117,1024.00
185128,810.00
185138,986.00
185148,1024.00
185159,631.00
185170,16.00
185180,15.00
185190,17.00
185200,16.00
185211,16.00
185221,17.00
185231,21.00
185241,57.00
185251,1024.00
185261,1024.00
185271,999.00
185281,618.00
185292,436.00
185302,529.00
185312,622.00
185322,668.00
185332,573.00
185342,309.00
185352,15.00
185362,16.00
185372,17.00
185382,18.00
185392,15.00
185402,16.00
185412,253.00
185422,255.00
185432,298.00
185442,444.00
185452,564.00
185462,219.00
185472,450.00
185482,517.00
185492,493.00
185502,316.00
185512,306.00
185522,504.00
185532,658.00
185542,812.00
185552,793.00
185562,762.00
185572,1010.00
185582,1024.00
185592,1024.00
185602,762.00
185617,525.00
185634,646.00
185649,781.00
185666,752.00
185680,675.00
185697,705.00
185713,769.00
185729,789.00
185745,705.00
185760,667.00
185775,673.00
185791,689.00
185806,640.00
185824,578.00
185838,461.00
185855,585.00
185870,639.00
185886,708.00
185902,621.00
185918,583.00
185933,514.00
185949,424.00
185966,478.00
185980,553.00
185996,564.00
186013,1024.00
186029,1024.00
186045,272.00
186061,293.00
186076,488.00
186092,462.00
186107,487.00
186124,518.00
186139,631.00
186154,775.00
186171,978.00
186187,1024.00
186203,1024.00
186218,1024.00
186511,14.00
186522,16.00
186532,12.00
186542,15.00
186552,13.00
186562,15.00
186572,13.00
186583,13.00
186593,15.00
186603,15.00
186613,300.00
186623,450.00
186633,463.00
186643,402.00
186653,356.00
186663,304.00
186673,389.00
186683,404.00
186693,453.00
186703,494.00
186713,518.00
186723,537.00
186734,641.00
186744,740.00
186755,870.00
186765,907.00
186775,726.00
186786,507.00
186796,460.00
186806,492.00
186816,242.00
186826,376.00
186836,462.00
186846,400.00
186856,492.00
186867,562.00
186878,739.00
186888,1024.00
186898,1024.00
186908,854.00
186918,390.00
186929,441.00
186940,634.00
186950,738.00
186960,797.00
186970,818.00
186980,817.00
186991,819.00
187001,828.00
187011,900.00
187024,955.00
187111,769.00
187124,694.00
187135,653.00
187146,622.00
187156,636.00
187166,666.00
187176,746.00
187186,716.00
187196,709.00
187206,694.00
187216,700.00
187226,679.00
187236,662.00
187246,709.00
187262,615.00
187276,732.00
187293,748.00
187308,702.00
187325,1024.00
187340,1024.00
187356,473.00
187372,531.00
187388,632.00
187403,799.00
187420,717.00
187435,634.00
187451,566.00
187467,571.00
187482,701.00
187499,643.00
187513,522.00
187530,472.00
187546,414.00
187562,399.00
187578,428.00
187594,397.00
187609,379.00
187625,424.00
187640,369.00
187656,355.00
187670,368.00
187687,279.00
187704,205.00
187720,230.00
187736,214.00
187750,172.00
187767,644.00
187783,751.00
187799,16.00
187813,15.00
187829,138.00
187846,289.00
187860,300.00
187877,270.00
187893,324.00
187908,414.00
187924,524.00
187941,554.00
187957,506.00
187972,478.00
187988,417.00
188004,405.00
188020,420.00
188036,463.00
188051,500.00
188067,522.00
188083,554.00
188099,628.00
188115,679.00
188131,637.00
188146,602.00
188162,505.00
188178,439.00
188193,391.00
188210,598.00
188225,1024.00
188241,183.00
188255,55.00
188273,271.00
188289,436.00
188303,568.00
188320,569.00
188335,568.00
188352,608.00
188368,726.00
188383,806.00
188398,757.00
188415,738.00
188430,639.00
188446,573.00
188461,577.00
188476,590.00
188494,603.00
188510,601.00
188526,535.00
188539,567.00
188557,543.00
188572,567.00
188589,552.00
188603,531.00
188620,523.00
188636,526.00
188652,541.00
188667,1024.00
188682,994.00
188699,243.00
188715,430.00
188731,636.00
188747,595.00
188763,334.00
188778,255.00
188792,319.00
188810,310.00
188825,269.00
188842,351.00
188857,390.00
188872,511.00
188888,554.00
188904,543.00
188920,553.00
188935,588.00
188952,601.00
188968,605.00
188984,570.00
188998,615.00
189015,576.00
189031,528.00
189047,416.00
189061,401.00
189078,470.00
189094,630.00
189110,1024.00
189126,1024.00
189141,505.00
189157,166.00
189173,460.00
189189,685.00
189205,808.00
189221,673.00
189236,627.00
189252,729.00
189268,890.00
189283,855.00
189300,780.00
189313,621.00
189330,573.00
189347,580.00
189363,627.00
189379,642.00
189393,567.00
189410,674.00
189426,797.00
189442,12.00
189457,91.00
189474,303.00
189707,547.00
189719,630.00
189730,714.00
189740,660.00
189751,636.00
189761,559.00
189771,456.00
189782,452.00
189792,397.00
189802,266.00
189812,169.00
189822,243.00
189832,332.00
189842,409.00
189852,460.00
189863,363.00
189873,465.00
189883,517.00
189893,747.00
189904,776.00
189915,710.00
189925,775.00
189935,775.00
189945,594.00
189955,616.00
189966,674.00
189976,753.00
189987,817.00
189997,662.00
190008,811.00
190018,1024.00
190028,1024.00
190038,465.00
190048,166.00
190059,220.00
190069,332.00
190079,344.00
190089,398.00
190099,500.00
190110,524.00
190120,550.00
190137,642.00
190153,704.00
190169,920.00
190184,1024.00
190199,1024.00
190216,829.00
190230,760.00
190248,732.00
190261,788.00
190279,785.00
190295,727.00
190311,577.00
190327,565.00
190342,808.00
190357,794.00
190373,703.00
190390,524.00
190406,506.00
190421,547.00
190436,581.00
190452,694.00
190469,1024.00
190484,217.00
190498,134.00
190516,363.00
190531,388.00
190548,394.00
190564,342.00
190579,374.00
190593,389.00
190610,525.00
190627,277.00
190641,445.00
190658,508.00
190672,465.00
190690,472.00
190706,418.00
190721,336.00
190736,380.00
190753,473.00
190769,509.00
190784,504.00
190800,478.00
190814,370.00
190832,36.00
190848,14.00
190864,13.00
190879,14.00
190894,617.00
190911,675.00
190927,157.00
190943,255.00
190958,402.00
190973,456.00
190989,399.00
191006,307.00
191022,272.00
191037,570.00
191053,709.00
191069,761.00
191085,766.00
191101,613.00
191117,630.00
191132,608.00
191148,657.00
191164,583.00
191179,770.00
191196,672.00
191211,680.00
191227,745.00
191242,800.00
191258,713.00
191274,727.00
191415,1024.00
191426,1024.00
191436,1024.00
191446,185.00
191457,13.00
191467,15.00
191600,756.00
191611,720.00
191621,747.00
191631,1024.00
191641,1024.00
191651,1024.00
191661,1024.00
191671,1024.00
191682,1024.00
191692,1024.00
191702,1024.00
191712,918.00
191722,425.00
191732,308.00
191744,15.00
191754,14.00
191764,15.00
191775,14.00
191785,17.00
191795,14.00
191805,17.00
191815,16.00
191825,173.00
191835,15.00
191846,16.00
191857,15.00
191867,17.00
191877,15.00
191887,14.00
191897,150.00
191908,43.00
191918,15.00
191928,36.00
191938,226.00
191949,340.00
191960,330.00
191971,277.00
191981,321.00
191991,297.00
192002,272.00
192017,91.00
192033,351.00
192049,14.00
192065,14.00
192081,111.00
192096,98.00
192110,520.00
192128,676.00
192144,737.00
192159,817.00
192175,801.00
192190,931.00
192205,1024.00
192222,725.00
192237,446.00
192252,728.00
192270,816.00
192285,848.00
192301,799.00
192316,825.00
192333,942.00
192348,1024.00
192365,1024.00
192379,962.00
192396,820.00
192412,747.00
192428,730.00
192444,740.00
192460,662.00
192475,613.00
192489,621.00
192507,657.00
192523,750.00
192539,739.00
192554,626.00
192569,531.00
192586,546.00
192602,610.00
192618,798.00
192633,1024.00
192648,222.00
192664,72.00
192681,286.00
192697,482.00
192712,534.00
192728,489.00
192744,488.00
192758,517.00
192775,577.00
192804,756.00
192815,682.00
192825,607.00
192838,518.00
192852,392.00
192870,288.00
192886,133.00
192902,135.00
192917,62.00
192934,97.00
192949,81.00
192965,12.00
192979,12.00
192997,13.00
193010,14.00
193028,93.00
193044,578.00
193058,1024.00
193075,159.00
193090,117.00
193107,357.00
193122,320.00
193139,526.00
193153,702.00
193170,790.00
193186,729.00
193201,824.00
193217,724.00
193233,501.00
193248,499.00
193265,544.00
193280,637.00
193297,614.00
193312,639.00
193327,625.00
193344,734.00
193358,750.00
193376,831.00
193390,742.00
193406,645.00
193423,664.00
193439,654.00
193454,590.00
193468,646.00
193486,1024.00
193501,765.00
193518,329.00
193531,512.00
193549,636.00
193565,669.00
193581,646.00
193597,673.00
193610,752.00
193628,895.00
193644,946.00
193660,978.00
193675,854.00
193691,744.00
193707,624.00
193723,513.00
193739,411.00
193753,393.00
193770,438.00
193784,390.00
193802,417.00
193818,576.00
193833,648.00
193849,638.00
193864,687.00
193881,571.00
193897,384.00
193913,747.00
193928,533.00
193944,344.00
193960,497.00
193975,954.00
193992,1024.00
194008,343.00
194023,375.00
194038,468.00
194055,557.00
194070,583.00
194085,627.00
194101,513.00
194118,477.00
194133,447.00
194150,481.00
194165,404.00
194179,374.00
194197,301.00
194213,345.00
194228,225.00
194243,136.00
194260,138.00
194276,125.00
194292,34.00
194306,233.00
194323,153.00
194338,817.00
194355,1024.00
194371,590.00
194386,943.00
194402,1024.00
194416,440.00
194434,916.00
194449,932.00
194465,458.00
194481,14.00
194495,16.00
194512,14.00
194529,14.00
194544,13.00
194559,470.00
194576,259.00
194591,216.00
194608,153.00
194622,297.00
194639,374.00
194654,428.00
194671,333.00
194687,448.00
194702,468.00
194718,284.00
194734,316.00
194748,352.00
194766,936.00
194781,1024.00
194797,433.00
194811,331.00
194829,642.00
194845,745.00
194860,729.00
194876,685.00
194892,561.00
194908,637.00
194924,857.00
194940,883.00
194955,962.00
194971,842.00
194987,745.00
195002,781.00
195019,712.00
195034,684.00
195049,651.00
195065,557.00
195082,674.00
195098,764.00
195113,824.00
195128,565.00
195145,712.00
195161,1010.00
195177,792.00
195347,482.00
195357,609.00
195367,672.00
195377,649.00
195387,574.00
195397,590.00
195407,439.00
195417,372.00
195427,316.00
195437,224.00
195447,235.00
195457,259.00
195467,300.00
195477,197.00
195487,30.00
195497,140.00
195507,280.00
195517,160.00
195527,173.00
195537,266.00
195630,626.00
195641,1024.00
195651,1024.00
195661,351.00
195671,212.00
195682,439.00
195693,511.00
195703,514.00
195714,511.00
196040,508.00
196054,265.00
196064,749.00
196074,1024.00
196085,592.00
196095,86.00
196105,304.00
196116,770.00
196127,1024.00
196138,1024.00
196149,1024.00
196160,1024.00
196170,1024.00
196180,1024.00
196190,832.00
196200,444.00
196210,292.00
196220,121.00
196230,15.00
196240,17.00
196250,16.00
196260,16.00
196270,14.00
196280,15.00
196290,14.00
196300,17.00
196310,16.00
196320,126.00
196330,14.00
196340,15.00
196351,149.00
196361,37.00
196371,232.00
196381,530.00
196391,380.00
196401,402.00
196411,315.00
196421,18.00
196431,169.00
196441,513.00
196451,567.00
196461,582.00
196471,547.00
196481,472.00
196491,644.00
196501,1024.00
196511,949.00
196521,372.00
196531,253.00
196541,522.00
196551,577.00
196561,509.00
196571,524.00
196581,489.00
196591,588.00
196601,715.00
196611,722.00
196621,834.00
196631,927.00
196646,1020.00
196662,1024.00
196677,1024.00
196691,1024.00
196709,901.00
196723,895.00
196740,722.00
196756,825.00
196771,811.00
196788,834.00
196803,832.00
196819,907.00
196834,943.00
196851,829.00
196867,754.00
196883,567.00
196899,628.00
196915,816.00
196929,1024.00
196946,292.00
196962,75.00
196978,200.00
196994,257.00
197009,337.00
197025,332.00
197041,354.00
197057,411.00
197072,485.00
197088,578.00
197104,699.00
197119,629.00
197136,459.00
197151,390.00
197167,262.00
197183,172.00
197199,154.00
197213,229.00
197230,426.00
197245,427.00
197262,197.00
197278,17.00
197293,29.00
197310,156.00
197325,286.00
197341,482.00
197357,1024.00
197373,178.00
197389,58.00
197404,199.00
197420,328.00
197436,498.00
197451,501.00
197468,641.00
197482,711.00
197499,651.00
197515,686.00
197531,619.00
197545,544.00
197562,510.00
197577,556.00
197594,472.00
197609,386.00
197625,484.00
197640,510.00
197657,538.00
197672,541.00
197689,632.00
197705,595.00
197720,572.00
197734,606.00
197752,600.00
197768,744.00
197784,1024.00
197798,1002.00
197815,373.00
197831,586.00
197847,704.00
197863,835.00
197878,841.00
197894,945.00
197908,941.00
197925,1024.00
197942,1024.00
197957,1024.00
197972,1024.00
197989,621.00
198005,596.00
198020,830.00
198036,646.00
198052,465.00
198068,332.00
198084,258.00
198100,201.00
198113,207.00
198131,189.00
198146,288.00
198163,394.00
198179,353.00
198195,319.00
198210,836.00
198226,522.00
