788460,304.00
788473,631.00
788483,788.00
788493,241.00
788503,37.00
788513,168.00
788523,312.00
788534,392.00
788544,439.00
788554,471.00
788564,500.00
788574,529.00
788584,548.00
788594,580.00
788604,626.00
788614,655.00
788624,670.00
788634,677.00
788644,679.00
788654,660.00
788664,620.00
788674,580.00
788684,552.00
788694,516.00
788704,509.00
788714,537.00
788724,544.00
788734,554.00
788744,582.00
788754,594.00
788764,582.00
788774,534.00
788784,500.00
788794,480.00
788804,476.00
788814,454.00
788824,412.00
788834,405.00
788844,656.00
788854,925.00
788864,487.00
788874,122.00
788884,252.00
788894,402.00
788904,485.00
788914,514.00
788924,535.00
788934,560.00
788944,582.00
788954,617.00
788964,690.00
788974,740.00
788984,797.00
788994,868.00
789004,913.00
789017,902.00
789033,876.00
789049,801.00
789064,746.00
789080,724.00
789096,676.00
789112,690.00
789128,686.00
789143,694.00
789159,596.00
789175,552.00
789191,533.00
789207,463.00
789223,760.00
789238,730.00
789254,147.00
789270,351.00
789286,468.00
789302,516.00
789317,534.00
789333,564.00
789349,645.00
789365,690.00
789381,734.00
789397,712.00
789412,649.00
789428,561.00
789444,496.00
789460,474.00
789476,447.00
789491,488.00
789507,504.00
789523,489.00
789539,420.00
789555,418.00
789571,427.00
789586,380.00
789602,746.00
789618,348.00
789634,18.00
789650,157.00
789665,317.00
789681,372.00
789697,378.00
789713,421.00
789729,487.00
789745,562.00
789760,585.00
789776,594.00
789792,529.00
789808,488.00
789824,432.00
789839,454.00
789855,441.00
789871,459.00
789887,521.00
789903,484.00
789919,429.00
789934,458.00
789950,423.00
789966,389.00
789982,860.00
789998,391.00
790013,308.00
790029,511.00
790045,608.00
790061,612.00
790077,602.00
790093,641.00
790108,559.00
790124,649.00
790140,644.00
790156,441.00
790172,533.00
790187,427.00
790203,472.00
790219,476.00
790235,474.00
790251,639.00
790267,588.00
790282,427.00
790298,498.00
790314,520.00
790330,271.00
790346,534.00
790361,944.00
790377,116.00
790393,279.00
790409,507.00
790425,565.00
790441,549.00
790456,489.00
790472,644.00
790488,739.00
790504,1024.00
790520,854.00
790535,968.00
790551,909.00
790567,781.00
790583,605.00
790599,540.00
790615,648.00
790630,742.00
790646,545.00
790662,568.00
790678,492.00
790694,380.00
790710,502.00
790725,603.00
790741,780.00
790757,18.00
790773,260.00
790789,408.00
790804,421.00
790820,356.00
790836,398.00
790852,415.00
790868,488.00
790884,619.00
790899,682.00
790915,653.00
790931,520.00
790947,531.00
790963,422.00
790978,564.00
790994,698.00
791010,417.00
791026,804.00
791042,548.00
791058,511.00
791073,519.00
791089,508.00
791105,770.00
791121,679.00
791137,228.00
791152,305.00
791168,502.00
791184,519.00
791200,512.00
791216,631.00
791232,597.00
791247,668.00
791263,753.00
791279,666.00
791295,682.00
791311,554.00
791326,567.00
791342,559.00
791358,495.00
791374,589.00
791390,538.00
791406,547.00
791421,521.00
791437,512.00
791453,497.00
791469,640.00
791485,943.00
791500,129.00
791516,20.00
791532,70.00
791548,373.00
791564,285.00
791580,374.00
791595,326.00
791611,471.00
791627,477.00
791643,493.00
791659,404.00
791674,338.00
791690,355.00
791706,384.00
791722,392.00
791738,499.00
791754,501.00
791769,562.00
791785,434.00
791801,281.00
791817,362.00
791833,296.00
791849,778.00
791864,778.00
791880,19.00
791896,540.00
791912,350.00
791928,500.00
791943,550.00
791959,588.00
791975,616.00
791991,763.00
792007,746.00
792023,642.00
792038,608.00
792054,494.00
792070,490.00
792086,397.00
792102,432.00
792118,386.00
792133,501.00
792149,457.00
792165,512.00
792181,493.00
792197,489.00
792212,588.00
792228,1024.00
792244,463.00
792260,343.00
792276,499.00
792292,796.00
792307,784.00
792323,761.00
792339,837.00
792355,861.00
792371,915.00
792386,768.00
792402,778.00
792418,632.00
792434,519.00
792450,482.00
792466,486.00
792481,433.00
792497,466.00
792513,423.00
792529,370.00
792545,350.00
792560,343.00
792576,365.00
792592,592.00
792608,913.00
792624,56.00
792640,207.00
792655,317.00
792671,396.00
792687,393.00
792703,437.00
792719,566.00
792734,600.00
792750,643.00
792766,694.00
792782,608.00
792798,531.00
792814,494.00
792829,502.00
792845,444.00
792861,401.00
792877,416.00
792893,413.00
792908,374.00
792924,447.00
792940,466.00
792956,502.00
792972,782.00
792988,518.00
793003,156.00
793019,382.00
793035,505.00
793051,550.00
793067,576.00
793082,603.00
793098,641.00
793114,700.00
793130,749.00
793146,723.00
793162,597.00
793177,545.00
793193,469.00
793209,436.00
793225,442.00
793241,494.00
793256,519.00
793272,476.00
793288,425.00
793304,415.00
793320,399.00
793336,578.00
793351,943.00
793367,85.00
793383,20.00
793399,223.00
793415,252.00
793431,337.00
793446,376.00
793462,470.00
793478,544.00
793494,573.00
793510,594.00
793525,523.00
793541,488.00
793557,418.00
793573,402.00
793589,406.00
793605,385.00
793620,393.00
793636,376.00
793652,423.00
793668,394.00
793684,396.00
793699,533.00
793715,684.00
793731,629.00
793747,146.00
793763,403.00
793779,631.00
793794,718.00
793810,776.00
793826,786.00
793842,824.00
793858,905.00
793874,925.00
793889,855.00
793905,727.00
793921,658.00
793937,585.00
793953,543.00
793968,571.00
793984,583.00
794000,583.00
794016,579.00
794032,466.00
794048,464.00
794063,508.00
794079,544.00
794095,985.00
794111,476.00
794127,45.00
794142,236.00
794158,393.00
794174,499.00
794190,532.00
794206,548.00
794222,592.00
794237,687.00
794253,700.00
794269,687.00
794285,604.00
794301,559.00
794316,516.00
794332,493.00
794348,495.00
794364,562.00
794380,517.00
794396,511.00
794411,556.00
794427,512.00
794443,513.00
794459,606.00
794475,917.00
794490,231.00
794506,269.00
794522,450.00
794538,537.00
794554,529.00
794570,546.00
794585,617.00
794601,612.00
794617,713.00
794633,689.00
794649,675.00
794664,604.00
794680,560.00
794696,461.00
794712,518.00
794728,473.00
794744,520.00
794759,585.00
794775,486.00
794791,483.00
794807,504.00
794823,394.00
794838,633.00
794854,697.00
794870,22.00
794886,258.00
794902,391.00
794918,445.00
794933,470.00
794949,535.00
794965,586.00
794981,656.00
794997,685.00
795012,673.00
795028,594.00
795044,532.00
795060,482.00
795076,446.00
795092,459.00
795107,492.00
795123,512.00
795139,486.00
795155,433.00
795171,558.00
795187,365.00
795202,425.00
795218,921.00
795234,458.00
795250,223.00
795266,422.00
795281,518.00
795297,543.00
795313,555.00
795329,622.00
795345,655.00
795361,752.00
795376,708.00
795392,675.00
795408,633.00
795424,559.00
795440,512.00
795455,494.00
795471,488.00
795487,545.00
795503,618.00
795519,582.00
795535,500.00
795550,482.00
795566,465.00
795582,598.00
795598,969.00
795614,88.00
795629,148.00
795645,302.00
795661,370.00
795677,430.00
795693,471.00
795709,536.00
795724,502.00
795740,615.00
795756,554.00
795772,522.00
795788,424.00
795803,369.00
795819,332.00
795835,394.00
795851,440.00
795867,581.00
795883,449.00
795898,504.00
795914,450.00
795930,305.00
795946,307.00
795962,634.00
795977,1024.00
795993,337.00
796009,361.00
796025,536.00
796041,603.00
796057,632.00
796072,674.00
796088,642.00
796104,733.00
796120,740.00
796136,693.00
796151,691.00
796167,552.00
796183,504.00
796199,441.00
796215,492.00
796231,641.00
796246,550.00
796262,558.00
796278,531.00
796294,497.00
796310,410.00
796325,338.00
796341,378.00
796357,945.00
796373,86.00
796389,76.00
796405,274.00
796420,356.00
796436,449.00
796452,436.00
796468,470.00
796484,549.00
796499,577.00
796515,628.00
796531,583.00
796547,511.00
796563,495.00
796579,556.00
796594,666.00
796610,583.00
796626,638.00
796642,460.00
796658,474.00
796674,504.00
796689,545.00
796705,524.00
796721,614.00
796737,1024.00
796753,536.00
796768,297.00
796784,449.00
796800,545.00
796816,543.00
796832,603.00
796848,620.00
796863,639.00
796879,718.00
796895,691.00
796911,627.00
796927,557.00
796942,629.00
796958,616.00
796974,576.00
796990,651.00
797006,633.00
797022,636.00
797037,570.00
797053,435.00
797069,409.00
797085,307.00
797101,314.00
797116,633.00
797133,715.00
797148,145.00
797164,283.00
797180,470.00
797196,529.00
797211,561.00
797227,594.00
797243,639.00
797259,688.00
797275,752.00
797290,705.00
797306,693.00
797322,633.00
797338,522.00
797354,582.00
797370,512.00
797385,463.00
797401,559.00
797417,624.00
797433,534.00
797449,448.00
797464,452.00
797480,427.00
797496,565.00
797512,928.00
797528,182.00
797544,236.00
797559,425.00
797575,520.00
797591,530.00
797607,509.00
797623,558.00
797638,572.00
797654,673.00
797670,714.00
797686,646.00
797702,628.00
797718,509.00
797733,460.00
797749,461.00
797765,413.00
797781,394.00
797797,402.00
797812,384.00
797828,314.00
797844,360.00
797860,364.00
797876,379.00
797892,869.00
797907,512.00
797923,169.00
797939,244.00
797955,391.00
797971,408.00
797986,422.00
798002,460.00
798018,405.00
798034,628.00
798050,631.00
798066,612.00
798081,625.00
798097,413.00
798113,409.00
798129,471.00
798145,517.00
798160,594.00
798176,617.00
798192,622.00
798208,579.00
798224,560.00
798240,532.00
798255,559.00
798271,756.00
798287,1024.00
798303,254.00
798319,237.00
798334,399.00
798350,481.00
798366,449.00
798382,497.00
798398,526.00
798414,597.00
798429,716.00
798445,693.00
798461,631.00
798477,588.00
798493,471.00
798508,334.00
798524,344.00
798540,434.00
798556,484.00
798572,519.00
798588,517.00
798603,422.00
798619,424.00
798635,356.00
798651,377.00
798667,661.00
798683,786.00
798698,54.00
815214,606.00
815227,656.00
815238,670.00
815248,559.00
815259,545.00
815269,519.00
815279,484.00
815829,554.00
815840,843.00
815850,871.00
815860,281.00
815870,218.00
815880,296.00
816091,543.00
816102,535.00
816112,618.00
816122,619.00
816132,632.00
816143,636.00
816153,588.00
816164,549.00
816174,567.00
816185,502.00
816196,494.00
816206,513.00
816216,657.00
816226,954.00
816236,998.00
816246,420.00
816256,298.00
816266,389.00
816276,375.00
816286,484.00
816296,609.00
816306,506.00
816316,513.00
816326,544.00
816336,608.00
816346,674.00
816356,712.00
816366,706.00
816376,757.00
816386,781.00
816396,754.00
816406,737.00
816416,685.00
816426,638.00
816436,594.00
816446,597.00
816456,591.00
816466,573.00
816476,570.00
816486,615.00
816496,615.00
816506,618.00
816516,669.00
816526,597.00
816536,601.00
816546,526.00
816556,480.00
816566,462.00
816576,437.00
816586,389.00
816596,595.00
816606,776.00
816616,862.00
816626,302.00
816636,232.00
816646,317.00
816656,466.00
816669,513.00
816685,504.00
816701,564.00
816717,580.00
816733,568.00
816748,584.00
816764,650.00
816780,689.00
816796,609.00
816812,598.00
816828,502.00
816843,556.00
816859,541.00
816875,557.00
816891,556.00
816907,513.00
816922,378.00
816938,436.00
816954,334.00
816970,485.00
816986,877.00
817002,408.00
817017,198.00
817033,324.00
817049,511.00
817065,524.00
817081,553.00
817096,612.00
817112,657.00
817128,758.00
817144,801.00
817160,758.00
817176,665.00
817191,592.00
817207,590.00
817223,561.00
817239,629.00
817255,603.00
817270,653.00
817286,531.00
817302,442.00
817318,473.00
817334,421.00
817350,610.00
817365,969.00
817381,408.00
817397,302.00
817413,502.00
817429,552.00
817444,494.00
817460,471.00
817476,516.00
817492,634.00
817508,638.00
817524,712.00
817539,570.00
817555,584.00
817571,531.00
817587,558.00
817603,569.00
817618,625.00
817634,583.00
817650,572.00
817666,526.00
817682,486.00
817698,525.00
817713,485.00
817729,442.00
817745,1008.00
817761,364.00
817777,113.00
817792,344.00
817808,513.00
817824,508.00
817840,535.00
817856,646.00
817872,688.00
817887,784.00
817903,768.00
817919,711.00
817935,657.00
817951,569.00
817967,573.00
817982,548.00
817998,574.00
818014,596.00
818030,573.00
818046,496.00
818061,529.00
818077,514.00
818093,488.00
818109,552.00
818125,985.00
818141,228.00
818156,201.00
818172,308.00
818188,458.00
818204,477.00
818220,546.00
818235,589.00
818251,652.00
818267,678.00
818283,697.00
818299,702.00
818315,540.00
818330,520.00
818346,522.00
818362,549.00
818378,526.00
818394,477.00
818409,502.00
818425,533.00
818441,460.00
818457,457.00
818473,367.00
818489,673.00
818504,997.00
818520,174.00
818536,302.00
818552,456.00
818568,513.00
818583,578.00
818599,582.00
818615,669.00
818631,705.00
818647,783.00
818663,741.00
818678,686.00
818694,676.00
818710,555.00
818726,538.00
818742,541.00
818758,543.00
818773,622.00
818789,631.00
818805,549.00
818821,518.00
818837,545.00
818852,456.00
818868,763.00
818884,885.00
818900,100.00
818916,284.00
818932,418.00
818947,499.00
818963,496.00
818979,526.00
818995,516.00
819011,561.00
819026,584.00
819042,578.00
819058,533.00
819074,481.00
819090,454.00
819106,470.00
819121,483.00
819137,547.00
819153,576.00
819169,598.00
819185,424.00
819200,471.00
819216,405.00
819232,362.00
819248,770.00
819734,549.00
819745,592.00
819755,657.00
819765,735.00
819775,768.00
819785,787.00
819795,799.00
819883,698.00
819894,680.00
819904,668.00
819914,748.00
819924,665.00
820074,602.00
820085,605.00
820095,655.00
820106,649.00
820117,706.00
820128,714.00
820139,651.00
820150,739.00
820160,774.00
820171,744.00
820182,742.00
820192,723.00
820202,726.00
820212,616.00
820222,530.00
820232,541.00
820242,649.00
820252,621.00
820262,636.00
820272,645.00
820282,627.00
820292,632.00
820302,603.00
820312,542.00
820322,418.00
820332,466.00
820342,473.00
820352,394.00
820362,424.00
820372,634.00
820382,909.00
820392,685.00
820402,182.00
820412,192.00
820422,334.00
820432,336.00
820442,472.00
820452,529.00
820462,528.00
820472,529.00
820482,514.00
820492,535.00
820502,593.00
820512,616.00
820522,657.00
820532,638.00
820542,656.00
820552,585.00
820562,530.00
820572,495.00
820582,428.00
820592,475.00
820602,484.00
820612,568.00
820624,556.00
820640,595.00
820656,585.00
820672,528.00
820687,510.00
820703,505.00
820719,532.00
820735,532.00
820751,997.00
820767,621.00
820782,330.00
820798,483.00
820814,581.00
820830,552.00
820846,576.00
820861,619.00
820877,601.00
820893,681.00
820909,714.00
820925,649.00
820941,607.00
820956,533.00
820972,549.00
820988,585.00
821004,569.00
821020,561.00
821035,576.00
821051,511.00
821067,505.00
821083,433.00
821099,420.00
821115,606.00
821130,1024.00
821146,253.00
821162,315.00
821178,469.00
821194,494.00
821209,552.00
821225,509.00
821241,536.00
821257,561.00
821273,636.00
821289,613.00
821304,546.00
821320,561.00
821336,561.00
821352,537.00
821368,579.00
821383,641.00
821399,626.00
821415,511.00
821431,534.00
821447,490.00
821463,495.00
821478,461.00
821494,884.00
821510,861.00
821526,283.00
821542,390.00
821557,546.00
821573,557.00
821589,573.00
821605,581.00
821621,622.00
821637,663.00
821652,714.00
821668,696.00
821684,684.00
821700,617.00
821716,568.00
821732,714.00
821747,693.00
821763,653.00
821779,633.00
821795,533.00
821811,462.00
821826,417.00
821842,461.00
821858,636.00
821874,958.00
821890,209.00
821906,271.00
821921,436.00
821937,548.00
821953,554.00
821969,554.00
821985,617.00
822000,643.00
822016,730.00
822032,688.00
822048,656.00
822064,605.00
822080,540.00
822095,602.00
822111,581.00
822127,571.00
822143,643.00
822159,601.00
822174,569.00
822190,571.00
822206,516.00
822222,548.00
822238,925.00
822254,480.00
822269,247.00
822285,438.00
822301,526.00
822317,549.00
822333,536.00
822348,576.00
822364,628.00
822380,725.00
822396,694.00
822412,735.00
822428,584.00
822443,621.00
822459,581.00
822475,568.00
822491,592.00
822507,630.00
822522,530.00
822538,484.00
822554,404.00
822570,438.00
822586,387.00
822602,739.00
822617,752.00
822633,136.00
822649,284.00
822665,409.00
822681,423.00
822696,498.00
822712,535.00
822728,518.00
822744,466.00
822760,511.00
822776,499.00
822791,481.00
822807,463.00
822823,482.00
822839,537.00
822855,554.00
822871,517.00
822886,541.00
822902,506.00
822918,498.00
822934,436.00
823093,566.00
823105,605.00
823115,664.00
823125,682.00
823135,658.00
823146,702.00
823156,631.00
823167,661.00
823178,620.00
823254,603.00
823266,524.00
823276,449.00
823286,442.00
823296,434.00
823306,417.00
823316,459.00
823326,432.00
823336,581.00
823346,907.00
823356,954.00
823366,318.00
823752,267.00
823763,356.00
823773,531.00
823783,571.00
823793,581.00
823804,557.00
823814,579.00
823825,592.00
823835,616.00
823845,645.00
823855,663.00
823865,690.00
823875,702.00
823885,751.00
823895,796.00
823905,744.00
823915,661.00
823925,678.00
823935,682.00
823945,618.00
823955,629.00
823965,614.00
823975,649.00
823985,652.00
823995,594.00
824005,545.00
824015,489.00
824025,465.00
824035,430.00
824045,457.00
824055,497.00
824065,446.00
824075,615.00
824085,838.00
824095,880.00
824106,352.00
824116,230.00
824126,304.00
824136,393.00
824146,476.00
824156,569.00
824166,557.00
824177,549.00
824187,556.00
824197,578.00
824207,559.00
824217,633.00
824227,670.00
824237,721.00
824247,771.00
824257,741.00
824267,732.00
824277,730.00
824287,609.00
824297,554.00
824310,552.00
824326,607.00
824342,615.00
824358,688.00
824373,646.00
824389,578.00
824405,548.00
824421,522.00
824437,463.00
824452,838.00
824468,811.00
824484,265.00
824500,325.00
824516,517.00
824532,543.00
824547,582.00
824563,537.00
824579,545.00
824595,666.00
824611,651.00
824626,689.00
824642,704.00
824658,516.00
824674,507.00
824690,483.00
824706,538.00
824721,616.00
824737,456.00
824753,432.00
824769,385.00
824785,416.00
824800,381.00
824816,678.00
824832,985.00
824848,120.00
824864,259.00
824880,386.00
824895,414.00
824911,428.00
824927,462.00
824943,392.00
824959,483.00
824974,661.00
824990,546.00
825006,581.00
825022,510.00
825038,401.00
825054,397.00
825069,416.00
825085,518.00
825101,525.00
825117,458.00
825133,380.00
825149,400.00
825164,394.00
825180,453.00
825196,889.00
825212,406.00
825228,122.00
825243,364.00
825259,385.00
825275,495.00
825291,442.00
825307,481.00
825323,579.00
825338,717.00
825354,673.00
825370,703.00
825386,624.00
825402,501.00
825417,533.00
825433,500.00
825449,579.00
825465,586.00
825481,559.00
825497,454.00
825512,437.00
825528,441.00
825544,403.00
825560,605.00
825576,973.00
825591,120.00
825607,129.00
825623,252.00
825639,360.00
825655,379.00
825671,344.00
825686,470.00
825703,569.00
825718,648.00
825734,592.00
825750,526.00
825765,448.00
825781,434.00
825797,505.00
825813,607.00
825829,610.00
825845,627.00
825860,619.00
825876,562.00
825892,543.00
825908,533.00
825924,512.00
825939,802.00
825955,775.00
825971,96.00
825987,258.00
826003,373.00
826019,418.00
826034,465.00
826050,516.00
826066,566.00
826082,661.00
826098,708.00
826114,645.00
826129,605.00
826145,567.00
826161,500.00
826177,558.00
826193,545.00
826208,609.00
826224,638.00
826240,572.00
826256,464.00
826272,473.00
826288,400.00
826303,557.00
826319,981.00
826335,396.00
826401,557.00
826412,605.00
826422,617.00
826432,630.00
826442,694.00
826500,629.00
826510,627.00
826520,622.00
826530,600.00
826541,579.00
826777,579.00
826787,613.00
826797,674.00
826807,693.00
826817,692.00
826827,697.00
826837,754.00
826847,769.00
826858,705.00
826868,722.00
826878,661.00
826888,554.00
826898,488.00
826908,540.00
826918,566.00
826928,568.00
826938,591.00
826948,653.00
826958,640.00
826968,650.00
826978,627.00
826988,581.00
826998,584.00
827008,482.00
827018,446.00
827028,495.00
827038,446.00
827048,533.00
827058,744.00
827068,1024.00
827078,423.00
827088,108.00
827098,170.00
827108,229.00
827118,269.00
827128,423.00
827139,366.00
827149,485.00
827159,499.00
827170,581.00
827180,567.00
827190,656.00
827200,643.00
827210,605.00
827220,670.00
827230,649.00
827241,612.00
827252,577.00
827268,534.00
827284,496.00
827300,509.00
827316,556.00
827332,583.00
827347,590.00
827363,561.00
827379,461.00
827395,472.00
827411,436.00
827426,574.00
827442,926.00
827458,165.00
827474,269.00
827490,326.00
827506,538.00
827521,577.00
827537,559.00
827553,665.00
827569,603.00
827585,694.00
827601,713.00
827616,622.00
827632,509.00
827648,513.00
827664,504.00
827680,549.00
827695,565.00
827711,595.00
827727,532.00
827743,456.00
827759,396.00
827775,389.00
827790,309.00
827806,577.00
827822,752.00
827838,19.00
827854,136.00
827870,405.00
827885,594.00
827901,572.00
827917,560.00
827933,609.00
827949,702.00
827964,808.00
827980,765.00
827996,716.00
828012,680.00
828028,642.00
828044,637.00
828059,663.00
828075,663.00
828091,619.00
828107,604.00
828123,553.00
828138,474.00
828154,423.00
828170,348.00
828186,664.00
828202,745.00
828218,41.00
828233,271.00
828249,485.00
828265,489.00
828281,560.00
828297,566.00
828312,579.00
828328,566.00
828344,701.00
828360,665.00
828376,698.00
828392,652.00
828407,574.00
828423,559.00
828439,570.00
828455,616.00
828471,636.00
828486,603.00
828502,530.00
828518,506.00
828534,461.00
828550,432.00
828566,833.00
828581,902.00
828597,273.00
828613,435.00
828629,545.00
828645,523.00
828660,573.00
828676,656.00
828692,708.00
828708,758.00
828724,766.00
828740,785.00
828755,736.00
828771,673.00
828787,624.00
828803,597.00
828819,598.00
828834,663.00
828850,636.00
828866,541.00
828882,495.00
828898,448.00
828914,438.00
828929,441.00
828945,894.00
828961,676.00
828977,194.00
828993,304.00
829008,417.00
829024,473.00
829040,460.00
829056,484.00
829072,526.00
829088,645.00
829103,725.00
829119,644.00
829135,640.00
829151,553.00
829167,550.00
829182,505.00
829198,543.00
829214,578.00
829230,558.00
829246,542.00
829262,386.00
829277,372.00
829293,498.00
829346,277.00
829356,237.00
829366,326.00
829376,420.00
829386,516.00
829396,581.00
829406,589.00
829420,645.00
829436,639.00
829451,749.00
829467,812.00
829483,855.00
829499,814.00
829515,713.00
829530,637.00
829546,615.00
829562,631.00
829578,537.00
829594,535.00
829610,553.00
829682,465.00
829693,718.00
829703,989.00
829713,819.00
829724,268.00
830049,549.00
830059,501.00
830069,622.00
830079,890.00
830089,1004.00
830099,422.00
830110,157.00
830120,295.00
830131,511.00
830141,559.00
830152,512.00
830163,538.00
830177,610.00
830188,644.00
830198,643.00
830209,692.00
830219,726.00
830229,774.00
830239,750.00
830249,698.00
830259,702.00
830269,691.00
830279,630.00
830289,589.00
830299,579.00
830309,585.00
830319,624.00
830329,580.00
830339,574.00
830349,600.00
830359,568.00
830369,571.00
830379,568.00
830389,509.00
830399,576.00
830409,544.00
830419,528.00
830429,525.00
830439,415.00
830449,519.00
830459,900.00
830469,993.00
830479,365.00
830489,113.00
830499,153.00
830509,366.00
830519,397.00
830529,440.00
830539,519.00
830549,516.00
830559,581.00
830569,583.00
830579,617.00
830589,655.00
830599,657.00
830609,713.00
830622,705.00
830638,660.00
830654,556.00
830669,510.00
830685,502.00
830701,410.00
830717,435.00
830733,464.00
830749,543.00
830764,529.00
830780,494.00
830796,457.00
830812,392.00
830828,606.00
830844,1024.00
830859,321.00
830875,305.00
830891,439.00
830907,546.00
830923,561.00
830938,640.00
830954,632.00
830970,699.00
830986,757.00
831002,750.00
831018,720.00
831033,559.00
831049,538.00
831065,534.00
831081,508.00
831097,581.00
831113,631.00
831128,657.00
831144,566.00
831160,518.00
831176,492.00
831192,473.00
831207,555.00
831223,1024.00
831239,233.00
831255,257.00
831271,439.00
831287,555.00
831302,595.00
831318,576.00
831334,617.00
831350,625.00
831366,689.00
831381,702.00
831397,633.00
831413,586.00
831429,523.00
831445,495.00
831461,464.00
831476,600.00
831492,541.00
831508,521.00
831524,620.00
831540,496.00
831555,459.00
831571,494.00
831587,541.00
831603,1024.00
831619,457.00
831635,277.00
831650,464.00
831666,564.00
831682,660.00
831698,574.00
831714,624.00
831729,713.00
831745,765.00
831761,721.00
831777,677.00
831793,588.00
831809,501.00
831824,509.00
831840,557.00
831856,601.00
831872,602.00
831888,622.00
831903,492.00
831919,502.00
831935,382.00
831951,379.00
831967,485.00
831983,940.00
831998,481.00
832014,238.00
832030,406.00
832046,482.00
832062,543.00
832077,523.00
832093,581.00
832109,586.00
832125,673.00
832141,668.00
832157,639.00
832172,550.00
832188,572.00
832204,645.00
832220,567.00
832236,632.00
832251,615.00
832267,614.00
832283,549.00
832299,541.00
832315,494.00
832331,471.00
832346,608.00
832362,1024.00
832378,325.00
832394,249.00
832410,451.00
832425,514.00
832441,541.00
832457,547.00
832473,557.00
832489,613.00
832505,692.00
832520,638.00
832536,577.00
832552,555.00
832568,544.00
832584,562.00
832599,546.00
832615,532.00
832631,548.00
832647,497.00
832663,437.00
832679,357.00
832779,262.00
832790,391.00
832800,433.00
832810,462.00
832882,554.00
832892,541.00
832902,586.00
832912,549.00
832922,526.00
832932,456.00
832942,541.00
832952,538.00
832962,534.00
832972,508.00
832982,522.00
832992,572.00
833002,609.00
833012,642.00
833022,681.00
833032,653.00
833042,610.00
833052,608.00
833062,605.00
833072,613.00
833082,586.00
833092,586.00
833106,969.00
833122,824.00
833137,308.00
833153,370.00
833169,553.00
834054,708.00
834066,721.00
834076,636.00
834086,606.00
834097,514.00
834108,536.00
834119,472.00
834130,393.00
834141,662.00
834151,540.00
834161,422.00
834171,484.00
834181,631.00
834191,530.00
834201,511.00
834211,593.00
834222,742.00
834233,1008.00
834243,698.00
834253,358.00
834263,192.00
834273,336.00
834283,447.00
834293,473.00
834303,385.00
834313,588.00
834323,629.00
834333,603.00
834343,621.00
834353,674.00
834363,642.00
834373,732.00
834383,761.00
834393,675.00
834403,674.00
834413,655.00
834423,605.00
834433,588.00
834443,487.00
834453,482.00
834463,561.00
834473,534.00
834483,558.00
834493,584.00
834503,564.00
834513,499.00
834523,516.00
834533,468.00
834543,389.00
834553,413.00
834563,389.00
834573,326.00
834583,351.00
834593,546.00
834603,800.00
834613,747.00
834624,40.00
834640,125.00
834656,305.00
834672,422.00
834688,385.00
834703,518.00
834719,556.00
834735,487.00
834751,663.00
834767,579.00
834783,588.00
834798,454.00
834814,485.00
834830,367.00
834846,454.00
834862,400.00
834878,501.00
834893,397.00
834909,351.00
834925,325.00
834941,282.00
834957,310.00
834972,705.00
834988,391.00
835004,17.00
835020,175.00
835036,319.00
835052,374.00
835067,373.00
835083,423.00
835099,472.00
835115,547.00
835131,561.00
835147,541.00
835162,474.00
835178,413.00
835194,379.00
835210,434.00
835226,396.00
835241,482.00
835257,494.00
835273,426.00
835289,440.00
835305,417.00
835321,384.00
835336,480.00
835352,902.00
835368,17.00
835384,240.00
835400,432.00
835416,401.00
835431,536.00
835447,644.00
835463,517.00
835479,605.00
835495,644.00
835510,615.00
835526,638.00
835542,581.00
835558,500.00
835574,526.00
835590,470.00
835605,510.00
835621,561.00
835637,473.00
835653,474.00
835669,401.00
835684,437.00
835700,447.00
835716,703.00
835732,485.00
835748,86.00
835764,374.00
835779,469.00
835795,543.00
835811,558.00
835827,646.00
835843,485.00
835858,746.00
835874,738.00
835890,795.00
835906,698.00
835922,620.00
835938,541.00
835953,616.00
835969,532.00
835985,526.00
836001,547.00
836017,607.00
836032,570.00
836048,469.00
836064,313.00
836080,506.00
836096,938.00
836112,210.00
836127,317.00
836143,392.00
836159,432.00
836175,559.00
836191,621.00
836206,661.00
836222,729.00
836238,763.00
836254,831.00
836270,775.00
836286,688.00
836301,632.00
836317,686.00
836333,641.00
836349,672.00
836365,639.00
836381,646.00
836396,464.00
836412,469.00
836428,568.00
836444,532.00
836460,1023.00
836475,411.00
836491,247.00
836507,425.00
836523,559.00
836539,591.00
836555,705.00
836570,749.00
836664,668.00
836675,617.00
836685,624.00
836695,650.00
836705,680.00
836774,555.00
836785,528.00
836795,511.00
836805,446.00
836815,531.00
836825,805.00
836835,991.00
836845,571.00
836855,248.00
836865,296.00
836875,437.00
836885,504.00
836895,530.00
836979,850.00
836989,843.00
836999,773.00
837009,761.00
837019,727.00
837029,701.00
837039,673.00
837049,653.00
837059,625.00
837069,700.00
837079,696.00
837089,747.00
837099,713.00
837109,670.00
837119,610.00
837129,489.00
837139,494.00
837149,562.00
837159,595.00
837171,701.00
837187,783.00
837203,1024.00
837219,272.00
837235,310.00
837251,573.00
837266,758.00
837282,728.00
837298,675.00
837314,715.00
837330,856.00
837345,934.00
837361,943.00
837377,883.00
837393,780.00
837409,746.00
837425,698.00
837440,694.00
837456,709.00
837472,658.00
837488,680.00
837504,530.00
837519,507.00
837535,537.00
837551,422.00
837567,798.00
837583,769.00
837599,181.00
837614,340.00
837630,538.00
837646,572.00
837662,579.00
837678,626.00
837693,673.00
837709,785.00
837725,774.00
837741,761.00
837757,714.00
837773,625.00
837788,654.00
837804,537.00
837820,613.00
837836,543.00
837852,605.00
837867,508.00
837883,489.00
837899,471.00
837915,415.00
837931,517.00
837947,941.00
837962,229.00
837978,246.00
837994,461.00
838010,510.00
838026,544.00
838041,595.00
838057,620.00
838073,690.00
838089,723.00
838105,718.00
838121,636.00
838136,618.00
838152,521.00
838168,548.00
838184,494.00
838200,501.00
838215,538.00
838231,519.00
838247,433.00
838263,459.00
838279,552.00
838295,466.00
838310,837.00
838326,759.00
838342,190.00
838358,379.00
838374,494.00
838390,520.00
838405,546.00
838421,560.00
838437,604.00
838453,653.00
838469,664.00
838484,676.00
838500,577.00
838516,525.00
838532,482.00
838548,504.00
838564,495.00
838579,512.00
838595,423.00
838611,391.00
838627,277.00
838643,277.00
838658,241.00
838674,254.00
838690,649.00
838706,34.00
838722,18.00
838738,190.00
838753,437.00
838769,358.00
838785,414.00
838801,384.00
838817,570.00
838832,409.00
838848,728.00
838864,561.00
838880,487.00
838896,445.00
838912,352.00
838927,537.00
838943,364.00
838959,610.00
838975,319.00
838991,432.00
839006,356.00
839022,369.00
839038,309.00
839054,650.00
839070,629.00
839086,28.00
839101,176.00
839117,390.00
839133,475.00
839149,439.00
839165,530.00
839180,546.00
839196,648.00
839212,674.00
839228,654.00
839244,602.00
839260,494.00
839275,477.00
839291,464.00
839307,508.00
839323,554.00
839339,459.00
839354,519.00
839370,432.00
839386,350.00
839402,410.00
839418,596.00
839434,928.00
839449,82.00
839465,207.00
839481,366.00
839497,460.00
839513,495.00
839529,490.00
839544,578.00
839560,564.00
839576,598.00
839592,660.00
839608,569.00
839623,529.00
839639,493.00
839655,462.00
839671,483.00
839687,519.00
839703,519.00
839718,477.00
839734,422.00
839750,367.00
839766,379.00
839782,352.00
839797,802.00
839813,387.00
839829,31.00
839845,348.00
839861,386.00
839877,468.00
839892,457.00
839908,511.00
839924,548.00
839940,654.00
839956,606.00
839972,813.00
839987,746.00
840003,715.00
840019,643.00
840035,522.00
840051,694.00
840066,607.00
840082,607.00
840098,583.00
840114,487.00
840130,490.00
840146,492.00
840161,457.00
840177,950.00
840193,97.00
840209,109.00
840225,304.00
840241,304.00
840256,468.00
840272,297.00
840288,322.00
840304,309.00
840320,448.00
840335,413.00
840351,376.00
840367,425.00
840383,265.00
840399,356.00
840414,319.00
840430,393.00
840446,390.00
840505,296.00
840516,286.00
840526,220.00
840536,313.00
840546,497.00
840556,682.00
840566,362.00
840624,340.00
840635,414.00
840645,450.00
840655,522.00
840665,513.00
840675,518.00
840685,492.00
840695,626.00
840705,614.00
840837,468.00
840848,451.00
840859,360.00
840869,364.00
840881,339.00
840892,348.00
840902,291.00
840913,399.00
840923,670.00
840933,677.00
840943,164.00
840953,37.00
840963,148.00
840973,237.00
840983,339.00
840993,391.00
841003,484.00
841013,448.00
841023,475.00
841033,456.00
841043,509.00
841053,568.00
841063,627.00
841079,619.00
841095,564.00
841111,520.00
841126,466.00
841142,475.00
841158,465.00
841174,469.00
841190,504.00
841206,475.00
841221,413.00
841237,331.00
841253,372.00
841269,306.00
841285,526.00
841300,1024.00
841316,316.00
841332,349.00
841348,556.00
841364,580.00
841380,562.00
841395,622.00
841411,624.00
841427,670.00
841443,768.00
841459,669.00
841474,632.00
841490,536.00
841506,562.00
841522,510.00
841538,512.00
841554,571.00
841569,595.00
841585,472.00
841601,464.00
841617,436.00
841633,389.00
841648,337.00
841664,468.00
841680,832.00
841696,20.00
841712,163.00
841728,316.00
841743,409.00
841759,396.00
841775,440.00
841791,490.00
841807,566.00
841823,617.00
841838,600.00
841854,492.00
841870,389.00
841886,341.00
841902,252.00
841917,219.00
841933,294.00
841949,268.00
841965,279.00
841981,261.00
841997,132.00
842012,220.00
842028,293.00
842044,675.00
842060,229.00
842076,19.00
842091,166.00
842107,374.00
842123,399.00
842139,452.00
842155,458.00
842171,603.00
842186,639.00
842202,654.00
842218,630.00
842234,540.00
842250,493.00
842266,486.00
842281,501.00
842297,541.00
842313,557.00
842329,546.00
842345,464.00
842360,387.00
842376,421.00
842392,369.00
842408,714.00
842424,673.00
842440,78.00
842455,276.00
842471,447.00
842487,497.00
842503,518.00
842519,541.00
842535,622.00
842550,664.00
842566,672.00
842582,625.00
842598,560.00
842614,481.00
842629,449.00
842645,500.00
842661,484.00
842677,514.00
842693,509.00
842709,463.00
842724,373.00
842740,370.00
842756,332.00
842772,474.00
842788,853.00
842803,19.00
842819,15.00
842835,139.00
842851,272.00
842867,289.00
842883,341.00
842898,406.00
842914,464.00
842930,537.00
842946,504.00
842962,460.00
842978,386.00
842993,368.00
843009,394.00
843025,396.00
843041,449.00
843057,462.00
843072,474.00
843088,389.00
843104,340.00
843120,362.00
843136,289.00
843152,693.00
843167,619.00
843183,19.00
843199,105.00
843215,324.00
843231,279.00
843247,356.00
843262,351.00
843278,402.00
843294,463.00
843310,485.00
843326,480.00
843341,415.00
843769,578.00
843780,560.00
843790,598.00
843800,622.00
843810,610.00
843820,584.00
843831,566.00
843841,512.00
843966,456.00
843977,456.00
843987,561.00
843997,596.00
844007,577.00
844017,618.00
844027,788.00
844037,814.00
844047,852.00
844057,867.00
844067,814.00
844077,858.00
844087,866.00
844098,748.00
844183,823.00
844196,855.00
844207,784.00
844217,725.00
844227,739.00
844237,745.00
844247,794.00
844257,674.00
844267,772.00
844277,1014.00
844287,1024.00
844297,750.00
844307,386.00
844317,454.00
844327,595.00
844337,702.00
844347,790.00
844357,814.00
844367,817.00
844377,808.00
844387,856.00
844397,891.00
844407,948.00
844417,979.00
844427,986.00
844437,984.00
844447,949.00
844457,925.00
844467,835.00
844477,753.00
844487,726.00
844497,708.00
844507,687.00
844517,620.00
844527,675.00
844537,685.00
844547,716.00
844557,697.00
844567,759.00
844578,536.00
844588,583.00
844598,559.00
844608,488.00
844618,512.00
844628,456.00
844638,510.00
844648,787.00
844658,987.00
844668,376.00
844678,160.00
844688,156.00
844698,387.00
844708,396.00
844718,410.00
844734,454.00
844749,316.00
844765,413.00
844781,424.00
844797,609.00
844813,502.00
844829,493.00
844844,403.00
844860,356.00
844876,386.00
844892,340.00
844908,429.00
844923,493.00
844939,484.00
844955,512.00
844971,361.00
844987,375.00
845003,307.00
845018,492.00
845034,933.00
845050,19.00
845066,226.00
845082,370.00
845097,530.00
845113,457.00
845129,523.00
845145,555.00
845161,727.00
845177,661.00
845192,690.00
845208,609.00
845224,498.00
845240,447.00
845256,413.00
845272,420.00
845287,451.00
845303,481.00
845319,476.00
845335,390.00
845351,394.00
845366,354.00
845382,376.00
845398,724.00
845414,334.00
845430,70.00
845445,348.00
845461,547.00
845477,565.00
845493,509.00
845509,576.00
845525,627.00
845540,664.00
845556,632.00
845572,598.00
845588,504.00
845604,432.00
845619,438.00
845635,470.00
845651,442.00
845667,489.00
845683,465.00
845699,384.00
845714,362.00
845730,345.00
845746,310.00
845762,502.00
845778,740.00
845794,17.00
845809,152.00
845825,392.00
845841,451.00
845857,449.00
845873,499.00
845888,581.00
845904,663.00
845920,678.00
845936,618.00
845952,606.00
845968,494.00
845983,478.00
845999,475.00
846015,520.00
846031,524.00
846047,585.00
846062,510.00
846078,489.00
846094,447.00
846110,409.00
846126,418.00
846142,842.00
846157,260.00
846173,187.00
846189,435.00
846205,556.00
846221,643.00
846236,745.00
846252,823.00
846268,888.00
846284,936.00
846300,916.00
846316,871.00
846331,786.00
846347,740.00
846363,701.00
846379,694.00
846395,673.00
846410,727.00
846426,711.00
846442,643.00
846458,521.00
846474,537.00
846490,533.00
846505,621.00
846521,957.00
846537,222.00
846553,370.00
846569,582.00
846585,631.00
846600,597.00
846616,475.00
846632,497.00
846648,528.00
846664,568.00
846679,544.00
846695,461.00
846711,392.00
846727,405.00
846743,400.00
846759,377.00
846774,427.00
846790,460.00
846806,463.00
846822,370.00
846838,350.00
846853,344.00
846869,318.00
846885,606.00
846901,438.00
846917,29.00
846933,268.00
846986,537.00
846997,552.00
847007,588.00
847017,628.00
847027,674.00
847037,716.00
847047,715.00
847059,672.00
847075,594.00
847139,434.00
847152,493.00
847163,456.00
847173,470.00
847183,437.00
847193,406.00
847204,423.00
847215,362.00
847225,396.00
847235,331.00
847249,597.00
847620,511.00
847631,823.00
847641,403.00
847651,20.00
847661,19.00
847672,250.00
847682,315.00
847692,484.00
847702,289.00
847712,449.00
847722,472.00
847732,461.00
847742,524.00
847752,622.00
847762,541.00
847772,624.00
847782,727.00
847792,509.00
847802,565.00
847812,564.00
847822,421.00
847832,493.00
847842,413.00
847852,370.00
847862,423.00
847872,451.00
847882,353.00
847892,423.00
847902,456.00
847912,427.00
847922,437.00
847932,337.00
847942,357.00
847952,306.00
847962,377.00
847972,298.00
847982,238.00
847992,520.00
848002,785.00
848012,430.00
848022,19.00
848032,33.00
848042,199.00
848052,344.00
848062,401.00
848072,410.00
848082,381.00
848092,424.00
848103,445.00
848114,468.00
848124,517.00
848135,565.00
848145,600.00
848155,589.00
848166,558.00
848176,553.00
848186,510.00
848198,440.00
848214,411.00
848230,387.00
848246,377.00
848261,436.00
848277,511.00
848293,468.00
848309,365.00
848325,348.00
848341,368.00
848356,375.00
848372,789.00
848388,125.00
848404,257.00
848420,531.00
848436,617.00
848451,629.00
848467,640.00
848483,661.00
848499,728.00
848515,818.00
848530,802.00
848546,740.00
848562,652.00
848578,576.00
848594,510.00
848610,478.00
848625,516.00
848641,475.00
848657,420.00
848673,328.00
848689,243.00
848704,289.00
848720,219.00
848736,366.00
848752,672.00
848768,20.00
848784,17.00
848799,219.00
848815,368.00
848831,360.00
848847,442.00
848863,489.00
848878,565.00
848894,644.00
848910,620.00
848926,546.00
848942,462.00
848958,390.00
848973,411.00
848989,392.00
849005,394.00
849021,425.00
849037,384.00
849052,361.00
849068,314.00
849084,303.00
849100,373.00
849116,746.00
849132,38.00
849147,20.00
849163,224.00
849179,412.00
849195,441.00
849211,464.00
849227,508.00
849242,596.00
849258,688.00
849274,638.00
849290,626.00
849306,526.00
849321,484.00
849337,477.00
849353,489.00
849369,505.00
849385,532.00
849401,513.00
849416,439.00
849432,456.00
849448,422.00
849464,412.00
849480,757.00
849495,641.00
849511,129.00
849527,271.00
849543,588.00
849559,593.00
849575,657.00
849590,705.00
849606,809.00
849622,852.00
849638,867.00
849654,812.00
849669,747.00
849685,669.00
849701,644.00
849717,646.00
849733,662.00
849749,689.00
849764,651.00
849780,616.00
849796,570.00
849812,568.00
849828,502.00
849843,642.00
849859,1024.00
849875,126.00
849891,269.00
849907,492.00
849923,564.00
849938,610.00
849954,658.00
849970,650.00
849986,735.00
850002,626.00
850017,580.00
850033,487.00
850049,426.00
850065,372.00
850081,391.00
850097,400.00
850112,423.00
850152,369.00
850163,349.00
850174,336.00
850185,334.00
850195,350.00
850207,304.00
850251,17.00
850262,139.00
850272,292.00
850282,388.00
850292,469.00
850302,476.00
850402,668.00
850413,592.00
850423,553.00
850434,519.00
850445,508.00
850455,520.00
850466,504.00
850476,532.00
850487,533.00
850497,546.00
850507,521.00
850517,512.00
850527,442.00
850537,433.00
850547,428.00
850557,425.00
850571,367.00
850587,649.00
850603,723.00
850619,48.00
850634,198.00
850650,409.00
850666,493.00
850682,529.00
850698,562.00
850714,608.00
850729,682.00
850745,768.00
850761,658.00
850777,583.00
850793,517.00
850809,475.00
850824,487.00
850840,500.00
850856,511.00
850872,523.00
850888,452.00
850903,402.00
850919,388.00
850935,348.00
850951,543.00
850967,853.00
850983,18.00
850998,129.00
851014,348.00
851030,430.00
851046,473.00
851062,499.00
851077,578.00
851093,653.00
851109,681.00
851125,669.00
851141,554.00
851157,516.00
851172,472.00
851188,482.00
851204,505.00
851220,581.00
851236,593.00
851251,580.00
851267,613.00
851283,661.00
851299,622.00
851315,621.00
851331,1024.00
851346,350.00
851362,267.00
851378,476.00
851394,532.00
851410,533.00
851426,581.00
851441,637.00
851457,724.00
851473,833.00
851489,857.00
851505,845.00
851520,711.00
851536,680.00
851552,626.00
851568,637.00
851584,655.00
851599,652.00
851615,657.00
851631,546.00
851647,517.00
851663,490.00
851679,435.00
851694,613.00
851710,831.00
851726,82.00
851742,273.00
851758,422.00
851773,497.00
851789,392.00
851805,421.00
851821,353.00
851837,392.00
851853,452.00
851868,413.00
851884,375.00
851900,300.00
851916,288.00
851932,283.00
851948,309.00
851963,333.00
851979,344.00
851995,288.00
852011,256.00
852027,272.00
852042,190.00
852058,307.00
852074,713.00
852090,21.00
852106,20.00
852122,317.00
852137,432.00
852153,463.00
852169,537.00
852185,576.00
852201,655.00
852216,732.00
852232,750.00
852248,690.00
852264,583.00
852280,552.00
852296,546.00
852311,506.00
852327,591.00
852343,598.00
852359,543.00
852375,481.00
852390,464.00
852406,462.00
852422,437.00
852438,856.00
852454,315.00
852470,169.00
852485,355.00
852501,530.00
852517,581.00
852533,584.00
852549,649.00
852564,716.00
852580,798.00
852596,765.00
852612,710.00
852628,605.00
852644,571.00
852659,531.00
852675,534.00
852691,540.00
852707,586.00
852723,577.00
852739,471.00
852754,410.00
852770,430.00
852786,363.00
852802,672.00
852818,668.00
852833,31.00
852849,254.00
852888,506.00
852899,525.00
852909,526.00
852919,601.00
852929,614.00
852944,672.00
853132,362.00
853144,399.00
853154,353.00
853164,379.00
853175,656.00
853185,930.00
853195,482.00
853205,175.00
853215,290.00
853225,469.00
853235,573.00
853245,664.00
853256,640.00
853267,678.00
853278,716.00
853324,813.00
853335,859.00
853345,805.00
853355,819.00
853365,676.00
853375,645.00
853385,622.00
853395,559.00
853406,538.00
853416,608.00
853426,566.00
853436,557.00
853447,605.00
853458,592.00
853468,601.00
853478,538.00
853488,502.00
853498,486.00
853508,441.00
853518,446.00
853528,417.00
853538,412.00
853548,593.00
853561,909.00
853577,160.00
853593,366.00
853609,489.00
853624,474.00
853640,461.00
853656,483.00
853672,554.00
853688,662.00
853704,763.00
853719,811.00
853735,737.00
853751,619.00
853767,550.00
853783,410.00
853798,279.00
853814,222.00
853830,295.00
853846,292.00
853862,312.00
853878,354.00
853893,355.00
853909,337.00
853925,765.00
853941,529.00
853957,189.00
853972,336.00
853988,542.00
854004,595.00
854020,603.00
854036,694.00
854052,717.00
854067,784.00
854083,841.00
854099,768.00
854115,711.00
854131,614.00
854146,590.00
854162,590.00
854178,615.00
854194,625.00
854210,634.00
854226,586.00
854241,523.00
854257,534.00
854273,466.00
854289,591.00
854305,964.00
854321,242.00
854336,240.00
854352,475.00
854368,556.00
854384,594.00
854400,639.00
854415,657.00
854431,737.00
854447,770.00
854463,783.00
854479,762.00
854495,825.00
854510,848.00
854526,855.00
854542,889.00
854558,932.00
854574,915.00
854589,862.00
854605,795.00
854621,736.00
854637,690.00
854653,545.00
854669,856.00
854684,824.00
854700,140.00
854716,361.00
854732,490.00
854748,478.00
854763,521.00
854779,535.00
854795,596.00
854811,664.00
854827,687.00
854843,626.00
854858,603.00
854874,540.00
854890,533.00
854906,505.00
854922,512.00
854937,555.00
854953,552.00
854969,525.00
854985,405.00
855001,475.00
855017,424.00
855032,424.00
855048,781.00
855064,507.00
855080,199.00
855096,437.00
855111,529.00
855127,574.00
855143,608.00
855159,621.00
855175,684.00
855191,781.00
855206,774.00
855222,729.00
855238,645.00
855254,614.00
855270,625.00
855285,616.00
855301,568.00
855317,509.00
855333,536.00
855349,480.00
855365,411.00
855380,426.00
855396,398.00
855412,444.00
855428,918.00
855444,234.00
855460,223.00
855475,414.00
855491,526.00
855507,571.00
855523,616.00
855539,655.00
855554,704.00
855570,778.00
855586,780.00
855602,763.00
855618,654.00
855634,629.00
855649,595.00
855665,580.00
855681,615.00
855697,626.00
855713,609.00
855729,564.00
855744,507.00
855760,518.00
855776,442.00
855792,649.00
855808,891.00
855823,142.00
855881,542.00
855891,557.00
855901,615.00
855912,617.00
855922,665.00
855932,711.00
855959,700.00
855969,717.00
855979,697.00
855989,624.00
855999,569.00
856014,536.00
856070,548.00
856081,566.00
856091,511.00
856102,461.00
856112,434.00
856123,400.00
856133,398.00
856143,374.00
856156,336.00
856171,758.00
856187,412.00
856203,68.00
856219,279.00
856235,404.00
856251,433.00
856266,480.00
856282,489.00
856298,569.00
856314,644.00
856330,624.00
856345,594.00
856361,536.00
856377,476.00
856393,464.00
856409,602.00
856425,677.00
856440,675.00
856456,735.00
856472,646.00
856488,589.00
856504,580.00
856520,537.00
856535,640.00
856551,1024.00
856567,246.00
856583,329.00
856599,540.00
856614,592.00
856630,605.00
856646,616.00
856662,654.00
856678,705.00
856694,741.00
856709,727.00
856725,661.00
856741,584.00
856757,547.00
856773,519.00
856788,549.00
856804,567.00
856820,565.00
856836,590.00
856852,507.00
856868,454.00
856883,473.00
856899,422.00
856915,523.00
856931,898.00
856947,211.00
856962,278.00
856978,476.00
856994,535.00
857010,593.00
857026,636.00
857042,655.00
857057,745.00
857073,802.00
857089,822.00
857105,771.00
857121,688.00
857136,625.00
857152,628.00
857168,613.00
857184,561.00
857200,526.00
857216,397.00
857231,326.00
857247,230.00
857263,225.00
857279,142.00
857295,425.00
857310,483.00
857326,17.00
857342,77.00
857358,345.00
857374,415.00
857390,458.00
857405,504.00
857421,574.00
857437,661.00
857453,712.00
857469,676.00
857484,607.00
857500,531.00
857516,512.00
857532,478.00
857548,502.00
857564,535.00
857579,541.00
857595,498.00
857611,453.00
857627,432.00
857643,378.00
857658,393.00
857674,860.00
857690,197.00
857706,174.00
857722,372.00
857738,516.00
857753,554.00
857769,590.00
857785,629.00
857801,693.00
857817,781.00
857833,727.00
857848,674.00
857864,607.00
857880,493.00
857896,530.00
857912,506.00
857927,541.00
857943,545.00
857959,528.00
857975,437.00
857991,417.00
858007,374.00
858022,442.00
858038,843.00
858054,912.00
858070,272.00
858086,492.00
858101,690.00
858117,658.00
858133,730.00
858149,747.00
858165,757.00
858181,806.00
858196,888.00
858212,775.00
858228,729.00
858244,616.00
858260,580.00
858275,560.00
858291,552.00
858307,591.00
858323,564.00
858339,492.00
858355,473.00
858370,413.00
858386,377.00
858402,446.00
858418,784.00
858434,209.00
858449,46.00
858465,321.00
858481,399.00
858497,509.00
858513,517.00
858529,567.00
858544,631.00
858560,746.00
858576,723.00
858592,677.00
858608,583.00
858623,564.00
858639,557.00
858655,510.00
858671,579.00
858687,602.00
858703,652.00
858718,581.00
858734,542.00
858750,547.00
858766,497.00
858782,619.00
858797,924.00
858813,212.00
858829,338.00
858845,597.00
858861,580.00
858877,670.00
858892,662.00
858908,636.00
858964,506.00
858974,490.00
858984,362.00
858994,379.00
859004,332.00
859014,379.00
859024,332.00
859035,349.00
859051,402.00
859066,384.00
859082,463.00
859098,424.00
859114,349.00
859130,280.00
859189,20.00
859202,156.00
859213,244.00
859223,435.00
859234,475.00
859244,493.00
859254,477.00
859264,586.00
859274,592.00
859288,586.00
859372,597.00
859383,531.00
859394,488.00
859404,529.00
859414,461.00
859424,470.00
859434,594.00
859444,550.00
859454,550.00
859464,490.00
859474,461.00
859484,402.00
859494,391.00
859509,402.00
859525,283.00
859541,697.00
859557,511.00
859573,28.00
859588,264.00
859604,452.00
859620,424.00
859636,512.00
859652,500.00
859668,508.00
859683,694.00
859699,675.00
859715,637.00
859731,536.00
859747,477.00
859763,411.00
859778,501.00
859794,421.00
859810,470.00
859826,435.00
859842,426.00
859857,373.00
859873,340.00
859889,343.00
859905,352.00
859921,879.00
859937,303.00
859952,226.00
859968,487.00
859984,636.00
860000,621.00
860016,650.00
860031,681.00
860047,802.00
860063,790.00
860079,789.00
860095,726.00
860111,609.00
860126,565.00
860142,461.00
860158,586.00
860174,514.00
860190,499.00
860205,525.00
860221,501.00
860237,445.00
860253,473.00
860269,400.00
860285,417.00
860300,835.00
860316,168.00
860332,133.00
860348,424.00
860364,464.00
860379,513.00
860395,490.00
860411,580.00
860427,628.00
860443,711.00
860459,697.00
860474,609.00
860490,567.00
860506,533.00
860522,473.00
860538,453.00
860554,408.00
860569,547.00
860585,450.00
860601,493.00
860617,446.00
860633,391.00
860648,445.00
860664,437.00
860680,818.00
860696,236.00
860712,176.00
860728,470.00
860743,582.00
860759,634.00
860775,662.00
860791,738.00
860807,814.00
860822,881.00
860838,802.00
860854,661.00
860870,490.00
860886,390.00
860902,283.00
860917,261.00
860933,309.00
860949,317.00
860965,314.00
860981,343.00
860996,293.00
861012,288.00
861028,233.00
861044,313.00
861060,750.00
861076,63.00
861091,21.00
861107,304.00
861123,463.00
861139,482.00
861155,489.00
861170,627.00
861186,703.00
861202,776.00
861218,739.00
861234,660.00
861250,622.00
861265,558.00
861281,521.00
861297,496.00
861313,565.00
861329,517.00
861345,588.00
861360,504.00
861376,434.00
861392,413.00
861408,471.00
861424,418.00
861439,845.00
861455,116.00
861471,204.00
861487,396.00
861503,481.00
861519,499.00
861534,492.00
861550,613.00
861566,634.00
861582,738.00
861598,742.00
861613,639.00
861629,590.00
861645,488.00
861661,523.00
861677,582.00
861693,633.00
861708,708.00
861724,718.00
861740,714.00
861756,585.00
861772,589.00
861788,569.00
861803,507.00
861819,929.00
861835,343.00
861851,241.00
861867,428.00
861882,490.00
861898,573.00
861914,510.00
861930,669.00
861946,610.00
861962,818.00
861977,789.00
861993,740.00
862009,628.00
862025,578.00
862041,549.00
862056,526.00
862072,597.00
862088,565.00
862104,590.00
862120,560.00
862136,487.00
862151,480.00
862167,465.00
862243,340.00
862255,460.00
862265,538.00
862275,522.00
862285,521.00
862383,738.00
862394,667.00
862404,657.00
862414,620.00
862424,619.00
862434,620.00
862444,642.00
862454,652.00
862464,653.00
862474,664.00
862484,700.00
862494,669.00
862578,397.00
862589,654.00
862599,456.00
862609,31.00
862619,58.00
862629,182.00
862639,288.00
862649,367.00
862659,452.00
862669,460.00
862679,483.00
862689,511.00
862699,558.00
862709,618.00
862719,666.00
862729,706.00
862739,734.00
862749,729.00
862759,729.00
862769,679.00
862779,610.00
862789,585.00
862801,566.00
862816,543.00
862832,556.00
862847,558.00
862863,585.00
862879,584.00
862895,495.00
862911,460.00
862927,457.00
862942,392.00
862958,576.00
862974,818.00
862990,127.00
863006,270.00
863021,448.00
863037,523.00
863053,556.00
863069,565.00
863085,619.00
863101,692.00
863116,727.00
863132,693.00
863148,625.00
863164,545.00
863180,498.00
863195,480.00
863211,504.00
863227,518.00
863243,525.00
863259,517.00
863275,439.00
863290,382.00
863306,364.00
863322,310.00
863338,548.00
863354,850.00
863370,22.00
863385,185.00
863401,370.00
863417,427.00
863433,468.00
863449,609.00
863464,788.00
863480,904.00
863496,937.00
863512,920.00
863528,835.00
863544,769.00
863559,706.00
863575,661.00
863591,706.00
863607,679.00
863623,677.00
863639,729.00
863654,631.00
863670,550.00
863686,556.00
863702,485.00
863718,579.00
863733,980.00
863749,219.00
863765,289.00
863781,496.00
863797,564.00
863813,572.00
863828,600.00
863844,668.00
863860,696.00
863876,746.00
863892,737.00
863907,696.00
863923,614.00
863939,583.00
863955,581.00
863971,606.00
863987,648.00
864002,571.00
864018,555.00
864034,393.00
864050,175.00
864066,159.00
864081,165.00
864097,103.00
864113,472.00
864129,436.00
864145,19.00
864161,19.00
864176,292.00
864192,399.00
864208,471.00
864224,492.00
864240,567.00
864255,602.00
864271,648.00
864287,608.00
864303,513.00
864319,456.00
864335,385.00
864350,388.00
864366,391.00
864382,424.00
864398,445.00
864414,428.00
864430,349.00
864445,337.00
864461,331.00
864477,272.00
864493,486.00
864509,597.00
864524,56.00
864540,112.00
864556,308.00
864572,398.00
864588,432.00
864604,463.00
864619,520.00
864635,561.00
864651,609.00
864667,596.00
864683,506.00
864698,416.00
864714,402.00
864730,409.00
864746,405.00
864762,437.00
864778,469.00
864793,448.00
864809,380.00
864825,350.00
864841,357.00
864857,290.00
864872,562.00
864888,790.00
864904,37.00
864920,232.00
864936,544.00
864952,654.00
864967,688.00
864983,735.00
864999,780.00
865015,857.00
865031,872.00
865046,811.00
865062,721.00
865078,638.00
865094,579.00
865110,590.00
865126,603.00
865141,572.00
865157,577.00
865173,550.00
865189,433.00
865205,368.00
865220,342.00
865236,245.00
865252,604.00
865268,830.00
865284,42.00
865300,221.00
865315,412.00
865331,384.00
865347,484.00
865434,765.00
865445,724.00
865455,685.00
865465,640.00
865515,655.00
865526,661.00
865536,646.00
865546,646.00
865556,637.00
865566,606.00
865576,601.00
865586,556.00
865675,159.00
865686,272.00
865696,380.00
865706,389.00
865716,402.00
865726,403.00
865736,411.00
865746,374.00
865756,361.00
865766,513.00
865776,511.00
865786,548.00
865796,547.00
865806,602.00
865816,525.00
865826,447.00
865836,423.00
865846,399.00
865856,355.00
865866,344.00
865876,360.00
865886,350.00
865901,434.00
865916,459.00
865932,452.00
865948,416.00
865964,314.00
865980,377.00
865996,306.00
866011,412.00
866027,785.00
866045,25.00
866059,74.00
866075,276.00
866091,389.00
866106,403.00
866122,451.00
866138,504.00
866154,583.00
866170,649.00
866185,638.00
866201,583.00
866217,495.00
866233,463.00
866249,461.00
866265,463.00
866280,504.00
866296,514.00
866312,509.00
866328,422.00
866344,382.00
866359,390.00
866375,332.00
866391,565.00
866407,979.00
866423,97.00
866439,240.00
866454,524.00
866470,632.00
866486,688.00
866502,737.00
866518,770.00
866533,838.00
866549,881.00
866565,871.00
866581,820.00
866597,726.00
866613,668.00
866628,667.00
866644,668.00
866660,689.00
866676,694.00
866692,673.00
866707,598.00
866723,547.00
866739,525.00
866755,471.00
866771,678.00
866787,1024.00
866802,262.00
866818,313.00
866834,523.00
866850,573.00
866866,601.00
866881,628.00
866897,662.00
866913,754.00
866929,776.00
866945,740.00
866961,624.00
866976,504.00
866992,423.00
867008,289.00
867024,228.00
867040,196.00
867055,234.00
867071,261.00
867087,218.00
867103,173.00
867119,175.00
867135,184.00
867150,186.00
867166,573.00
867182,210.00
867198,19.00
867214,137.00
867229,317.00
867245,353.00
867261,406.00
867277,460.00
867293,535.00
867309,602.00
867324,625.00
867340,589.00
867356,516.00
867372,468.00
867388,441.00
867404,421.00
867419,441.00
867435,465.00
867451,481.00
867467,446.00
867483,374.00
867498,370.00
867514,366.00
867530,329.00
867546,761.00
867562,268.00
867578,101.00
867593,301.00
867609,436.00
867625,465.00
867641,505.00
867657,541.00
867673,621.00
867688,676.00
867704,697.00
867720,650.00
867736,585.00
867752,532.00
867767,517.00
867783,526.00
867799,542.00
867815,556.00
867831,615.00
867847,615.00
867862,545.00
867878,544.00
867894,589.00
867910,590.00
867926,1024.00
867941,960.00
867957,362.00
867973,554.00
867989,696.00
868005,709.00
868021,756.00
868036,789.00
868052,841.00
868068,897.00
868084,877.00
868100,859.00
868116,772.00
868131,728.00
868147,681.00
868163,675.00
868179,669.00
868195,689.00
868210,704.00
868226,690.00
868242,595.00
868258,555.00
868274,543.00
868290,464.00
868305,654.00
868321,998.00
868337,224.00
868353,339.00
868369,512.00
868384,546.00
868400,580.00
868416,620.00
868432,674.00
868448,744.00
868464,794.00
868479,797.00
868495,764.00
868511,679.00
868527,656.00
868543,639.00
868558,656.00
868574,669.00
868590,703.00
868606,736.00
868622,670.00
868757,338.00
868767,348.00
868777,355.00
868787,370.00
868797,388.00
868807,439.00
868817,472.00
868827,501.00
868882,566.00
868893,531.00
868903,493.00
868913,476.00
868923,471.00
868933,468.00
868943,486.00
869339,521.00
869352,534.00
869362,565.00
869374,567.00
869385,519.00
869395,470.00
869405,441.00
869415,428.00
869425,425.00
869435,434.00
869445,384.00
869455,596.00
869465,927.00
869475,835.00
869485,132.00
869495,91.00
869505,208.00
869515,329.00
869525,437.00
869535,439.00
869545,468.00
869555,533.00
869565,546.00
869575,528.00
869585,612.00
869595,605.00
869605,669.00
869615,704.00
869625,678.00
869635,622.00
869645,581.00
869655,554.00
869665,424.00
869675,362.00
869685,303.00
869695,322.00
869705,324.00
869715,361.00
869725,307.00
869735,247.00
869745,234.00
869755,296.00
869765,385.00
869775,402.00
869785,338.00
869795,382.00
869805,397.00
869815,356.00
869825,315.00
869835,393.00
869845,649.00
869855,862.00
869865,430.00
869875,14.00
869885,75.00
869895,223.00
869905,322.00
869919,409.00
869935,396.00
869951,433.00
869967,470.00
869982,569.00
869998,653.00
870014,634.00
870030,588.00
870046,453.00
870061,441.00
870077,350.00
870093,398.00
870109,399.00
870125,474.00
870141,450.00
870156,422.00
870172,353.00
870188,361.00
870204,309.00
870220,343.00
870235,753.00
870251,404.00
870267,63.00
870283,339.00
870299,540.00
870315,615.00
870330,668.00
870346,727.00
870362,792.00
870378,917.00
870394,934.00
870409,860.00
870425,769.00
870441,676.00
870457,639.00
870473,641.00
870489,651.00
870504,624.00
870520,653.00
870536,636.00
870552,562.00
870568,531.00
870583,550.00
870599,550.00
870615,811.00
870631,1016.00
870647,264.00
870663,497.00
870678,677.00
870694,753.00
870710,768.00
870726,859.00
870742,903.00
870757,992.00
870773,1024.00
870789,1003.00
870805,921.00
870821,809.00
870837,769.00
870852,762.00
870868,783.00
870884,787.00
870900,822.00
870916,822.00
870931,775.00
870947,696.00
870963,692.00
870979,679.00
870995,739.00
871011,1024.00
871026,454.00
871042,200.00
871058,307.00
871074,344.00
871090,360.00
871106,385.00
871121,459.00
871137,545.00
871153,646.00
871169,666.00
871185,606.00
871200,522.00
871216,453.00
871232,424.00
871248,433.00
871264,456.00
871280,480.00
871295,496.00
871311,496.00
871327,426.00
871343,411.00
871359,394.00
871374,389.00
871390,619.00
871406,786.00
871422,41.00
871438,214.00
871454,442.00
871469,507.00
871485,534.00
871501,568.00
871517,620.00
871533,746.00
871548,746.00
871564,747.00
871580,619.00
871596,500.00
871612,475.00
871628,411.00
871643,447.00
871659,456.00
871675,466.00
871691,480.00
871707,417.00
871722,370.00
871738,368.00
871754,348.00
871770,390.00
871786,927.00
871802,138.00
871817,16.00
871833,286.00
871849,378.00
871865,516.00
871881,557.00
871947,835.00
871957,832.00
871967,757.00
871977,711.00
871987,662.00
871997,618.00
872092,711.00
872103,648.00
872114,603.00
872125,610.00
872136,620.00
872147,624.00
872453,848.00
872466,879.00
872476,874.00
872486,864.00
872496,813.00
872506,768.00
872516,766.00
872526,765.00
872536,770.00
872546,751.00
872556,762.00
872567,1024.00
872577,1024.00
872587,1024.00
872597,430.00
872607,442.00
872617,616.00
872627,734.00
872637,775.00
872647,775.00
872657,795.00
872667,819.00
872677,853.00
872687,877.00
872697,920.00
872707,988.00
872717,1010.00
872727,1023.00
872737,988.00
872747,950.00
872757,881.00
872767,834.00
872777,814.00
872787,781.00
872797,781.00
872807,754.00
872817,764.00
872827,770.00
872837,775.00
872847,790.00
872857,761.00
872867,792.00
872877,790.00
872887,796.00
872897,741.00
872907,699.00
872917,669.00
872927,688.00
872937,655.00
872947,682.00
872957,654.00
872967,809.00
872977,1024.00
872988,1024.00
873004,333.00
873020,540.00
873035,699.00
873051,724.00
873067,725.00
873083,757.00
873099,817.00
873115,902.00
873130,936.00
873146,901.00
873162,842.00
873178,727.00
873194,638.00
873209,475.00
873225,294.00
873241,204.00
873257,183.00
873273,225.00
873289,261.00
873304,207.00
873320,198.00
873336,210.00
873352,218.00
873368,270.00
873383,658.00
873399,269.00
873415,37.00
873431,218.00
873447,380.00
873463,456.00
873478,502.00
873494,533.00
873510,637.00
873526,692.00
873542,718.00
873558,682.00
873573,621.00
873589,556.00
873605,555.00
873621,544.00
873637,569.00
873652,541.00
873668,555.00
873684,595.00
873700,556.00
873716,508.00
873732,453.00
873747,462.00
873763,398.00
873779,759.00
873795,732.00
873811,148.00
873826,293.00
873842,471.00
873858,507.00
873874,585.00
873890,608.00
873906,657.00
873921,722.00
873937,765.00
873953,724.00
873969,631.00
873985,547.00
874000,504.00
874016,473.00
874032,458.00
874048,492.00
874064,506.00
874080,520.00
874095,518.00
874111,439.00
874127,405.00
874143,370.00
874159,348.00
874174,439.00
874190,860.00
874206,136.00
874222,124.00
874238,341.00
874254,475.00
874269,556.00
874285,675.00
874301,725.00
874317,778.00
874333,811.00
874349,808.00
874364,782.00
874380,709.00
874396,664.00
874412,698.00
874428,700.00
874443,713.00
874459,740.00
874475,740.00
874491,758.00
874507,745.00
874523,653.00
874538,633.00
874554,617.00
874570,531.00
874586,829.00
874602,950.00
874617,205.00
874633,328.00
874649,441.00
874665,442.00
874681,470.00
874697,505.00
874712,564.00
874728,643.00
874744,674.00
874760,662.00
874776,609.00
874791,558.00
874807,524.00
874823,504.00
874839,521.00
874855,483.00
874871,472.00
874886,468.00
874902,415.00
874918,372.00
874934,223.00
874950,178.00
874965,122.00
874981,90.00
874997,439.00
875013,76.00
875029,15.00
875045,15.00
875060,144.00
875076,244.00
875218,412.00
875231,413.00
875242,396.00
875252,408.00
875262,409.00
875272,437.00
875282,448.00
875320,438.00
875330,411.00
875340,401.00
875350,378.00
875360,385.00
875370,353.00
875380,337.00
875390,471.00
875400,783.00
875410,843.00
875420,174.00
875430,81.00
875440,173.00
875450,352.00
875460,456.00
875470,464.00
875480,483.00
875490,526.00
875500,579.00
875510,596.00
875520,679.00
875535,730.00
875551,777.00
875567,703.00
875582,766.00
875712,511.00
875723,459.00
875733,424.00
875743,421.00
875753,401.00
875763,391.00
875773,341.00
875783,377.00
875795,716.00
875806,882.00
875816,225.00
875826,17.00
875836,156.00
875846,286.00
875856,393.00
875866,406.00
875876,450.00
875886,450.00
875896,499.00
875906,519.00
875916,523.00
875930,600.00
875946,663.00
875962,631.00
875978,576.00
875994,497.00
876010,462.00
876025,454.00
876041,417.00
876057,451.00
876073,468.00
876089,473.00
876104,490.00
876120,390.00
876136,379.00
876152,328.00
876168,306.00
876184,453.00
876199,870.00
876215,32.00
876231,111.00
876247,341.00
876263,423.00
876279,430.00
876294,465.00
876310,496.00
876326,588.00
876342,614.00
876358,582.00
876373,520.00
876389,449.00
876405,412.00
876421,382.00
876437,362.00
876453,378.00
876468,392.00
876484,424.00
876500,432.00
876516,334.00
876532,288.00
876547,292.00
876563,218.00
876579,409.00
876595,750.00
876611,17.00
876627,38.00
876642,321.00
876658,346.00
876674,376.00
876690,425.00
876706,477.00
876721,547.00
876737,593.00
876753,550.00
876769,489.00
876785,457.00
876801,391.00
876816,378.00
876832,362.00
876848,391.00
876864,410.00
876880,453.00
876895,466.00
876911,385.00
876927,404.00
876943,448.00
876959,412.00
876975,764.00
876990,813.00
877006,175.00
877022,437.00
877038,594.00
877054,616.00
877070,658.00
877085,701.00
877101,750.00
877117,844.00
877133,833.00
877149,853.00
877164,746.00
877180,661.00
877196,594.00
877212,564.00
877228,556.00
877244,529.00
877259,553.00
877275,556.00
877291,541.00
877307,447.00
877323,444.00
877338,435.00
877354,386.00
877370,775.00
877386,337.00
877402,148.00
877418,386.00
877433,506.00
877449,544.00
877465,608.00
877481,643.00
877497,718.00
877512,812.00
877528,864.00
877544,817.00
877560,648.00
877576,476.00
877592,310.00
877607,193.00
877623,166.00
877639,127.00
877655,185.00
877671,197.00
877686,166.00
877702,140.00
877718,173.00
877734,144.00
877750,272.00
877766,649.00
877781,17.00
877797,20.00
877813,233.00
877829,358.00
877845,391.00
877860,461.00
877876,547.00
877892,590.00
877908,678.00
877924,681.00
877940,602.00
877955,516.00
877971,484.00
877987,437.00
878003,437.00
878019,451.00
878034,468.00
878050,488.00
878066,481.00
878082,396.00
878098,373.00
878114,386.00
878129,305.00
878145,760.00
878161,418.00
878177,17.00
878193,315.00
878208,410.00
878224,470.00
878240,487.00
878256,565.00
878272,641.00
878288,679.00
878303,691.00
878319,674.00
878335,574.00
878351,499.00
878474,605.00
878484,641.00
878494,669.00
878504,657.00
878514,602.00
878524,837.00
878534,1024.00
878544,931.00
878555,279.00
878764,565.00
878775,583.00
878785,573.00
878795,583.00
878805,574.00
878815,620.00
878825,617.00
878835,596.00
878845,546.00
878855,508.00
878865,512.00
878875,494.00
878885,499.00
878952,320.00
878963,487.00
878973,571.00
878983,566.00
878993,505.00
879003,414.00
879013,304.00
879023,250.00
879033,277.00
879043,306.00
879053,367.00
879064,410.00
879074,450.00
879084,436.00
879094,390.00
879105,327.00
879115,306.00
879125,288.00
879135,264.00
879145,266.00
879155,274.00
879165,292.00
879175,312.00
879185,330.00
879195,350.00
879205,402.00
879215,381.00
879225,334.00
879235,290.00
879245,300.00
879255,306.00
879266,322.00
879276,283.00
879286,297.00
879296,568.00
879306,831.00
879316,302.00
879326,17.00
879336,69.00
879346,284.00
879356,385.00
879366,448.00
879379,458.00
879395,516.00
879411,583.00
879427,642.00
879442,725.00
879458,748.00
879474,713.00
879490,593.00
879506,554.00
879522,505.00
879537,498.00
879553,504.00
879569,541.00
879585,568.00
879601,564.00
879616,451.00
879632,451.00
879648,445.00
879664,386.00
879680,759.00
879696,483.00
879711,60.00
879727,357.00
879743,494.00
879759,518.00
879775,562.00
879790,605.00
879806,653.00
879822,796.00
879838,904.00
879854,886.00
879870,792.00
879885,756.00
879901,785.00
879917,790.00
879933,856.00
879949,860.00
879965,849.00
879980,818.00
879996,714.00
880012,679.00
880028,642.00
880044,574.00
880059,862.00
880075,751.00
880091,233.00
880107,501.00
880123,613.00
880139,619.00
880154,677.00
880170,688.00
880186,745.00
880202,821.00
880218,838.00
880233,793.00
880249,676.00
880265,629.00
880281,560.00
880297,536.00
880313,558.00
880328,536.00
880344,605.00
880360,560.00
880376,494.00
880392,508.00
880407,482.00
880423,441.00
880439,699.00
880455,749.00
880471,127.00
880487,421.00
880502,556.00
880518,613.00
880534,660.00
880550,657.00
880566,709.00
880581,756.00
880597,771.00
880613,592.00
880629,457.00
880645,283.00
880661,177.00
880676,156.00
880692,174.00
880708,193.00
880724,276.00
880740,262.00
880755,202.00
880771,213.00
880787,219.00
880803,183.00
880819,465.00
880835,544.00
880850,17.00
880866,55.00
880882,342.00
880898,390.00
880914,433.00
880929,508.00
880945,566.00
880961,692.00
880977,730.00
880993,724.00
881009,625.00
881024,542.00
881040,509.00
881056,497.00
881072,510.00
881088,534.00
881104,570.00
881119,547.00
881135,501.00
881151,474.00
881167,485.00
881183,385.00
881198,721.00
881214,771.00
881230,67.00
881246,333.00
881262,516.00
881278,532.00
881293,544.00
881309,606.00
881325,692.00
881341,781.00
881357,927.00
881372,861.00
881388,716.00
881404,825.00
881420,727.00
881436,766.00
881452,738.00
881467,807.00
881483,908.00
881499,828.00
881515,790.00
881531,835.00
881546,766.00
881562,725.00
881578,903.00
881594,1002.00
881610,404.00
881626,421.00
881755,859.00
881766,673.00
881776,472.00
881786,577.00
881796,564.00
881806,663.00
881816,498.00
881826,313.00
881836,689.00
881846,488.00
881856,486.00
881866,446.00
881876,422.00
881886,441.00
881896,387.00
881906,379.00
881916,344.00
881926,338.00
881936,376.00
881946,369.00
881958,452.00
881974,809.00
881989,19.00
882005,93.00
882021,401.00
882037,336.00
882053,654.00
882069,440.00
882084,630.00
882100,442.00
882116,1024.00
882132,1024.00
882148,294.00
882163,1017.00
882179,531.00
882195,374.00
882211,613.00
882227,568.00
882243,564.00
882258,486.00
882274,414.00
882290,428.00
882306,209.00
882322,436.00
882337,653.00
882353,497.00
882369,105.00
882385,189.00
882401,435.00
882417,402.00
882487,369.00
882498,418.00
882508,281.00
882518,448.00
882528,177.00
882538,461.00
882549,185.00
882895,1024.00
882906,891.00
882916,794.00
882926,750.00
882936,738.00
882946,714.00
882956,628.00
882966,668.00
882976,608.00
882986,592.00
882996,770.00
883006,686.00
883016,714.00
883026,618.00
883037,562.00
883047,573.00
883057,625.00
883067,619.00
883077,576.00
883087,764.00
883097,975.00
883107,622.00
883117,205.00
883127,281.00
883137,336.00
883148,492.00
883159,568.00
883170,576.00
883181,699.00
883191,710.00
883201,809.00
883211,726.00
883221,784.00
883231,843.00
883241,905.00
883251,905.00
883261,878.00
883271,870.00
883281,771.00
883291,708.00
883301,583.00
883311,590.00
883321,691.00
883331,610.00
883341,573.00
883351,713.00
883361,703.00
883371,712.00
883381,713.00
883391,620.00
883401,638.00
883411,577.00
883421,494.00
883431,497.00
883441,482.00
883451,522.00
883461,808.00
883476,953.00
883492,254.00
883508,387.00
883524,573.00
883540,591.00
883555,610.00
883571,644.00
883587,677.00
883603,727.00
883619,838.00
883634,769.00
883650,682.00
883666,540.00
883682,490.00
883698,621.00
883714,654.00
883729,657.00
883745,716.00
883761,663.00
883777,553.00
883793,518.00
883808,403.00
883824,661.00
883840,1023.00
883856,346.00
883872,279.00
883888,459.00
883903,496.00
883919,554.00
883935,561.00
883951,644.00
883967,749.00
883982,713.00
883998,845.00
884014,679.00
884030,629.00
884046,669.00
884062,716.00
884077,769.00
884093,697.00
884109,704.00
884125,771.00
884141,747.00
884156,718.00
884172,737.00
884188,742.00
884204,1024.00
884220,942.00
884236,403.00
884251,525.00
884267,708.00
884283,699.00
884299,714.00
884315,742.00
884330,756.00
884346,856.00
884362,961.00
884378,970.00
884394,816.00
884410,817.00
884425,733.00
884441,742.00
884457,727.00
884473,761.00
884489,773.00
884505,677.00
884520,668.00
884536,674.00
884552,621.00
884568,865.00
884584,1024.00
884599,384.00
884615,434.00
884631,584.00
884647,640.00
884663,686.00
884679,747.00
884694,844.00
884710,924.00
884726,1024.00
884742,972.00
884758,736.00
884773,712.00
884789,763.00
884805,809.00
884821,852.00
884837,850.00
884853,878.00
884868,854.00
884884,832.00
884900,746.00
884916,680.00
884932,762.00
884947,1024.00
884963,673.00
884979,303.00
884995,507.00
885011,681.00
885027,698.00
885042,810.00
885058,820.00
885074,816.00
885090,931.00
885106,924.00
885122,894.00
885137,764.00
885153,734.00
885169,663.00
885185,742.00
885201,681.00
885216,879.00
885232,820.00
885248,626.00
885264,679.00
885280,632.00
885296,656.00
885311,925.00
885327,889.00
885343,288.00
885359,415.00
885375,756.00
885390,699.00
885406,752.00
885422,672.00
885438,739.00
885454,867.00
885470,985.00
885485,963.00
885501,883.00
885517,856.00
885533,843.00
885591,831.00
885602,747.00
885612,776.00
885622,651.00
885632,601.00
885642,591.00
885652,631.00
885703,811.00
885714,396.00
885724,430.00
885734,469.00
885744,630.00
885754,727.00
885764,691.00
885774,701.00
885786,763.00
885802,768.00
885818,781.00
885833,903.00
885849,837.00
885865,745.00
885881,669.00
885897,601.00
885912,592.00
885928,651.00
885944,669.00
885960,679.00
885976,652.00
885992,593.00
886123,660.00
886135,667.00
886145,773.00
886155,768.00
886165,801.00
886175,685.00
886185,994.00
886196,964.00
886207,1012.00
886217,1024.00
886228,986.00
886239,912.00
886250,768.00
886260,777.00
886271,732.00
886281,648.00
886291,630.00
886301,649.00
886311,631.00
886321,684.00
886331,556.00
886341,684.00
886355,657.00
886371,510.00
886387,765.00
886403,558.00
886419,684.00
886434,1024.00
886450,721.00
886466,273.00
886482,402.00
886498,485.00
886514,514.00
886529,483.00
886545,598.00
886561,700.00
886577,696.00
886593,694.00
886608,794.00
886624,717.00
886640,691.00
886656,604.00
886672,631.00
886688,849.00
886703,801.00
886719,757.00
886735,615.00
886751,657.00
886767,538.00
886783,561.00
886798,661.00
886814,1024.00
886830,462.00
886846,348.00
886862,519.00
886877,639.00
886893,616.00
886909,691.00
886925,650.00
886941,737.00
886957,801.00
886972,837.00
886988,764.00
887004,702.00
887020,528.00
887036,644.00
887051,733.00
887067,769.00
887083,746.00
887099,828.00
887115,762.00
887131,632.00
887146,556.00
887162,538.00
887178,710.00
887194,1024.00
887210,446.00
887225,229.00
887241,403.00
887257,501.00
887273,602.00
887289,621.00
887305,668.00
887320,712.00
887336,777.00
887352,806.00
887368,711.00
887384,643.00
887399,692.00
887415,729.00
887431,680.00
887447,628.00
887463,746.00
887479,816.00
887494,749.00
887510,694.00
887526,703.00
887542,606.00
887558,884.00
887573,1024.00
887589,445.00
887605,322.00
887621,602.00
887637,670.00
887653,588.00
887668,630.00
887684,747.00
887700,760.00
887716,848.00
887732,821.00
887747,928.00
887763,737.00
887779,658.00
887795,670.00
887811,631.00
887827,708.00
887842,691.00
887858,669.00
887874,608.00
887890,651.00
887906,618.00
887921,476.00
887937,856.00
887953,1024.00
887969,272.00
887985,325.00
888001,499.00
888016,463.00
888032,567.00
888048,591.00
888064,734.00
888080,864.00
888095,895.00
888111,946.00
888127,825.00
888143,795.00
888159,807.00
888175,821.00
888190,796.00
888206,865.00
888222,857.00
888238,870.00
888254,784.00
888270,761.00
888285,690.00
888301,680.00
888317,761.00
888333,1024.00
888349,459.00
888364,236.00
888380,521.00
888396,590.00
888412,805.00
888428,691.00
888443,746.00
888459,774.00
888475,890.00
888491,854.00
888507,800.00
888523,628.00
888538,633.00
888554,434.00
888570,505.00
888586,488.00
888602,468.00
888618,552.00
888633,462.00
888649,523.00
888665,422.00
888681,478.00
888697,547.00
888748,271.00
888759,439.00
888769,520.00
888779,562.00
888789,654.00
888828,855.00
888838,870.00
888848,973.00
888858,884.00
888939,805.00
888950,769.00
888960,793.00
888970,721.00
888980,724.00
888990,752.00
889000,686.00
889010,698.00
889020,626.00
889030,609.00
889040,561.00
889050,586.00
889060,578.00
889070,740.00
889080,603.00
889092,746.00
889108,1024.00
889124,519.00
889140,321.00
889155,466.00
889171,606.00
889187,615.00
889203,669.00
889219,629.00
889234,624.00
889250,778.00
889266,774.00
889282,732.00
889298,742.00
889314,629.00
889329,660.00
889345,621.00
889361,628.00
889377,614.00
889393,624.00
889408,664.00
889424,562.00
889440,448.00
889456,430.00
889472,473.00
889488,903.00
889503,1024.00
889519,380.00
889535,477.00
889551,724.00
889567,797.00
889582,754.00
889598,808.00
889614,797.00
889630,842.00
889646,881.00
889662,886.00
889677,742.00
889693,690.00
889709,606.00
889725,679.00
889741,736.00
889757,691.00
889772,736.00
889788,762.00
889804,721.00
889820,626.00
889836,608.00
889851,582.00
889867,622.00
889883,944.00
889899,900.00
889915,325.00
889931,445.00
889946,578.00
889962,639.00
889978,689.00
889994,736.00
890010,754.00
890025,853.00
890041,862.00
890057,985.00
890073,900.00
890089,822.00
890105,765.00
890120,679.00
890136,785.00
890152,835.00
890168,872.00
890184,885.00
890199,858.00
890216,813.00
890231,792.00
890247,789.00
890263,788.00
890279,1024.00
890294,967.00
890310,396.00
890326,605.00
890342,712.00
890358,733.00
890373,725.00
890389,781.00
890405,912.00
890421,1016.00
890437,1013.00
890453,969.00
890468,900.00
890484,822.00
890500,724.00
890516,724.00
890532,746.00
890547,788.00
890563,813.00
890579,717.00
890595,662.00
890611,528.00
890627,534.00
890642,489.00
890658,668.00
890674,1024.00
890690,185.00
890706,228.00
890722,477.00
890737,548.00
890753,565.00
890769,624.00
890785,663.00
890801,710.00
890816,876.00
890832,850.00
890848,781.00
890864,684.00
890880,630.00
890896,592.00
890911,584.00
890927,569.00
890943,619.00
890959,681.00
890975,613.00
890990,501.00
891006,409.00
891022,482.00
891038,434.00
891054,804.00
891070,1024.00
891085,447.00
891101,500.00
891117,614.00
891133,717.00
891149,768.00
891164,780.00
891180,795.00
891196,831.00
891212,790.00
891228,742.00
891244,581.00
891259,414.00
891275,356.00
891291,350.00
891307,415.00
891323,401.00
891338,482.00
891354,574.00
891370,581.00
891386,402.00
891402,387.00
891418,416.00
891433,499.00
891449,826.00
891465,663.00
891481,122.00
891497,402.00
891512,612.00
891528,627.00
891544,634.00
891560,700.00
891576,786.00
891592,866.00
891607,912.00
891623,858.00
891639,733.00
891655,605.00
891671,540.00
891686,418.00
891702,482.00
891718,470.00
891734,532.00
891750,596.00
891766,567.00
891781,492.00
891797,475.00
891813,435.00
891829,481.00
891845,847.00
891860,498.00
891876,104.00
891892,329.00
891908,545.00
891924,499.00
891940,493.00
891955,554.00
891971,642.00
891987,709.00
892003,744.00
892019,668.00
892035,629.00
892050,577.00
892066,504.00
892082,572.00
892098,733.00
892114,753.00
892129,752.00
892145,667.00
892161,655.00
892177,622.00
892193,602.00
892209,595.00
892223,696.00
892240,1024.00
892256,426.00
892272,281.00
892288,496.00
892303,537.00
892319,606.00
892335,630.00
892351,614.00
892367,682.00
892382,732.00
892398,799.00
892414,704.00
892430,752.00
892446,680.00
892462,617.00
892477,553.00
892493,592.00
892509,631.00
892525,613.00
892541,451.00
892557,310.00
892572,332.00
892644,90.00
892655,31.00
892665,165.00
892675,205.00
892685,362.00
892695,343.00
892744,415.00
892754,513.00
892764,737.00
892774,672.00
892784,727.00
892794,708.00
892804,618.00
892814,588.00
892824,454.00
892834,490.00
892844,519.00
892952,768.00
892963,774.00
892973,674.00
892983,644.00
892993,717.00
893003,1017.00
893013,1024.00
893023,960.00
893033,329.00
893043,233.00
893053,424.00
893063,532.00
893073,554.00
893083,559.00
893093,759.00
893103,738.00
893113,644.00
893126,663.00
893142,728.00
893158,811.00
893174,775.00
893189,696.00
893205,601.00
893221,510.00
893237,390.00
893253,325.00
893269,334.00
893284,336.00
893300,354.00
893316,321.00
893332,326.00
893348,320.00
893363,370.00
893379,428.00
893395,780.00
893411,717.00
893427,160.00
893442,426.00
893458,552.00
893474,612.00
893490,556.00
893506,658.00
893522,752.00
893537,870.00
893553,924.00
893569,919.00
893585,889.00
893601,783.00
893617,770.00
893632,716.00
893648,754.00
893664,716.00
893680,722.00
893696,651.00
893711,589.00
893727,494.00
893743,494.00
893759,516.00
893775,708.00
893791,1024.00
893806,506.00
893822,334.00
893838,461.00
893854,521.00
893870,572.00
893885,582.00
893901,655.00
893917,708.00
893933,768.00
893949,817.00
893965,696.00
893980,665.00
893996,619.00
894012,554.00
894028,591.00
894044,564.00
894059,632.00
894075,646.00
894091,702.00
894107,621.00
894123,505.00
894139,402.00
894154,415.00
894170,960.00
894186,931.00
894202,290.00
894218,410.00
894233,498.00
894249,543.00
894265,676.00
894281,684.00
894297,754.00
894313,821.00
894328,884.00
894344,850.00
894360,681.00
894376,620.00
894392,606.00
894408,637.00
894423,660.00
894439,752.00
894455,741.00
894471,682.00
894487,576.00
894502,536.00
894518,554.00
894534,506.00
894550,813.00
894566,837.00
894582,65.00
894597,253.00
894613,316.00
894629,417.00
894645,376.00
894661,453.00
894677,481.00
894692,600.00
894708,679.00
894724,685.00
894740,604.00
894756,565.00
894771,585.00
894787,606.00
894803,612.00
894819,643.00
894835,663.00
894851,680.00
894866,629.00
894882,648.00
894898,600.00
894914,562.00
894930,805.00
894945,1024.00
894961,386.00
894977,365.00
894993,564.00
895009,615.00
895025,629.00
895040,569.00
895056,632.00
895072,681.00
895088,748.00
895104,836.00
895119,794.00
895135,744.00
895151,556.00
895167,641.00
895183,606.00
895199,626.00
895214,672.00
895230,665.00
895246,590.00
895262,548.00
895278,522.00
895293,535.00
895309,576.00
895325,1013.00
895341,453.00
895357,289.00
895373,426.00
895388,541.00
895404,540.00
895420,545.00
895436,783.00
895452,819.00
895467,871.00
895483,934.00
895499,821.00
895515,822.00
895531,765.00
895547,744.00
895562,785.00
895578,825.00
895594,768.00
895610,770.00
895626,757.00
895641,680.00
895695,764.00
895706,1024.00
895716,816.00
895726,248.00
895736,279.00
895747,420.00
895757,499.00
895768,540.00
895784,693.00
895849,801.00
895860,852.00
895870,854.00
895880,758.00
895890,725.00
895900,724.00
895910,585.00
895920,526.00
895930,496.00
895942,475.00
895958,461.00
896060,361.00
896071,526.00
896081,832.00
896091,998.00
896101,471.00
896112,243.00
896123,325.00
896133,416.00
896143,548.00
896153,629.00
896164,610.00
896175,649.00
896186,716.00
896197,789.00
896207,840.00
896217,910.00
896228,948.00
896243,1010.00
896258,954.00
896274,858.00
896290,801.00
896306,792.00
896322,786.00
896338,789.00
896353,781.00
896369,712.00
896385,728.00
896401,534.00
896417,535.00
896433,498.00
896448,507.00
896464,858.00
896480,1013.00
896496,197.00
896512,410.00
896527,522.00
896543,531.00
896559,579.00
896575,574.00
896591,670.00
896606,702.00
896622,747.00
896638,776.00
896654,684.00
896670,678.00
896686,594.00
896701,596.00
896717,595.00
896733,541.00
896749,678.00
896765,589.00
896781,670.00
896796,602.00
896812,581.00
896828,502.00
896844,752.00
896860,1024.00
896875,369.00
896891,420.00
896907,586.00
896923,645.00
896939,616.00
896955,667.00
896970,733.00
896986,781.00
897002,800.00
897018,772.00
897034,708.00
897050,595.00
897065,559.00
897081,545.00
897097,577.00
897113,660.00
897129,738.00
897144,620.00
897160,581.00
897176,464.00
897192,480.00
897208,436.00
897224,787.00
897239,879.00
897255,20.00
897271,116.00
897287,285.00
897303,353.00
897318,410.00
897334,425.00
897350,517.00
897366,591.00
897382,596.00
897398,628.00
897413,546.00
897429,564.00
897445,578.00
897461,547.00
897477,543.00
897492,540.00
897508,540.00
897524,561.00
897540,664.00
897556,741.00
897572,716.00
897587,704.00
897603,906.00
897619,1024.00
897635,500.00
897651,448.00
897666,600.00
897682,666.00
897698,660.00
897714,597.00
897730,632.00
897746,713.00
897761,701.00
897777,728.00
897793,758.00
897809,624.00
897825,573.00
897840,504.00
897856,537.00
897872,585.00
897888,580.00
897904,566.00
897920,442.00
897935,345.00
897951,245.00
897967,300.00
897983,504.00
897999,761.00
898014,32.00
898030,138.00
898046,400.00
898062,454.00
898078,514.00
898094,422.00
898109,693.00
898125,606.00
898141,703.00
898157,691.00
898173,574.00
898188,583.00
898204,661.00
898220,704.00
898236,760.00
898252,775.00
898268,796.00
898283,847.00
898299,675.00
898315,687.00
898331,634.00
898347,616.00
898362,838.00
898378,997.00
898394,93.00
898410,374.00
898426,502.00
898442,562.00
898457,684.00
898473,700.00
898489,733.00
898505,742.00
898521,835.00
898536,823.00
898552,748.00
898568,722.00
898584,624.00
898600,642.00
898616,641.00
898631,760.00
898647,715.00
898663,615.00
898679,619.00
898695,606.00
898711,493.00
898726,513.00
898742,853.00
898758,746.00
898774,296.00
898790,459.00
898805,521.00
898821,533.00
898837,534.00
898853,699.00
898869,781.00
898885,858.00
898900,926.00
898916,907.00
898932,846.00
898976,704.00
898987,723.00
898997,725.00
899007,738.00
899017,632.00
899028,701.00
899043,577.00
899059,584.00
899074,464.00
899119,1024.00
899131,850.00
899142,266.00
899153,260.00
899163,354.00
899223,531.00
899235,462.00
899245,477.00
899255,548.00
899265,600.00
899275,523.00
899285,622.00
899295,565.00
899305,484.00
899315,430.00
899327,517.00
899343,445.00
899359,451.00
899375,438.00
899391,484.00
899407,470.00
899422,534.00
899438,504.00
899454,509.00
899470,392.00
899486,640.00
899502,888.00
899517,154.00
899533,401.00
899549,590.00
899565,723.00
899581,725.00
899596,778.00
899612,781.00
899628,859.00
899644,877.00
899660,841.00
899676,768.00
899691,681.00
899707,565.00
899723,533.00
899739,506.00
899755,614.00
899770,522.00
899786,585.00
899802,521.00
899818,469.00
899834,470.00
899850,425.00
899865,688.00
899881,872.00
899897,81.00
899913,281.00
899929,438.00
899944,557.00
899960,449.00
899976,556.00
899992,584.00
900008,665.00
900024,722.00
900039,723.00
900055,627.00
900071,585.00
900087,540.00
900103,576.00
900118,639.00
900134,624.00
900150,702.00
900166,643.00
900182,603.00
900198,589.00
900213,571.00
900229,588.00
900245,1024.00
900261,675.00
900277,342.00
900293,500.00
900308,610.00
900324,632.00
900340,693.00
900356,721.00
900372,757.00
900387,752.00
900403,824.00
900419,736.00
900435,670.00
900451,738.00
900467,675.00
900482,670.00
900498,620.00
900514,651.00
900530,644.00
900546,547.00
900561,413.00
900577,352.00
900593,313.00
900609,552.00
900625,862.00
900641,138.00
900656,136.00
900672,344.00
900688,430.00
900704,534.00
900720,642.00
900735,636.00
900751,742.00
900767,829.00
900783,857.00
900799,759.00
900815,790.00
900830,667.00
900846,612.00
900862,751.00
900878,884.00
900894,931.00
900909,845.00
900925,807.00
900941,812.00
900957,764.00
900973,840.00
900989,1024.00
901004,820.00
901020,376.00
901036,537.00
901052,604.00
901068,667.00
901084,668.00
901099,624.00
901115,732.00
901131,882.00
901147,840.00
901163,770.00
901178,675.00
901194,658.00
901210,620.00
901226,646.00
901242,688.00
901258,724.00
901273,690.00
901289,602.00
901305,558.00
901321,550.00
901337,513.00
901352,869.00
901368,1024.00
901384,161.00
901400,328.00
901416,451.00
901432,501.00
901447,677.00
901463,653.00
901479,768.00
901495,824.00
901511,837.00
901526,817.00
901542,769.00
901558,735.00
901574,713.00
901590,733.00
901606,715.00
901621,769.00
901637,770.00
901653,718.00
901669,613.00
901685,595.00
901700,627.00
901716,649.00
901732,1024.00
901991,529.00
902002,553.00
902012,549.00
902022,508.00
902032,425.00
902042,408.00
902052,349.00
902062,369.00
902072,336.00
902082,378.00
902092,675.00
902102,973.00
902112,646.00
902122,274.00
902132,231.00
902142,445.00
902152,579.00
902162,581.00
902172,609.00
902182,649.00
902192,725.00
902203,897.00
902213,936.00
902223,966.00
902234,1017.00
902293,840.00
902304,901.00
902314,764.00
902324,766.00
902334,788.00
902344,710.00
902354,760.00
902364,682.00
902374,764.00
902384,622.00
902551,692.00
902562,705.00
902572,712.00
902582,733.00
902592,737.00
902602,769.00
902612,697.00
902622,653.00
902632,591.00
902642,501.00
902652,470.00
902662,379.00
902672,362.00
902682,367.00
902692,350.00
902702,382.00
902712,396.00
902722,372.00
902732,337.00
902742,343.00
902752,370.00
902762,400.00
902772,438.00
902782,427.00
902792,509.00
902802,459.00
902812,416.00
902822,385.00
902832,704.00
902842,1020.00
902853,511.00
902863,300.00
902873,409.00
902883,488.00
902893,626.00
902903,675.00
902913,690.00
902923,725.00
902933,744.00
902943,808.00
902953,782.00
902963,833.00
902973,882.00
902983,900.00
902998,859.00
903014,812.00
903029,704.00
903045,588.00
903061,561.00
903077,533.00
903093,583.00
903108,621.00
903124,688.00
903140,607.00
903156,568.00
903172,577.00
903188,488.00
903203,819.00
903219,766.00
903238,205.00
903251,368.00
903267,535.00
903282,542.00
903298,600.00
903314,555.00
903330,645.00
903346,697.00
903362,809.00
903377,753.00
903393,670.00
903409,571.00
903425,511.00
903441,631.00
903456,679.00
903472,677.00
903488,769.00
903504,628.00
903520,625.00
903536,594.00
903551,521.00
903567,835.00
903583,1023.00
903599,324.00
903615,414.00
903630,579.00
903646,643.00
903662,618.00
903678,544.00
903694,612.00
903710,703.00
903725,726.00
903741,784.00
903757,641.00
903773,692.00
903789,625.00
903804,718.00
903820,672.00
903836,693.00
903852,640.00
903868,619.00
903884,500.00
903899,485.00
903915,325.00
903931,529.00
903947,879.00
903963,92.00
903978,98.00
903994,303.00
904010,355.00
904026,396.00
904042,410.00
904058,385.00
904073,441.00
904089,612.00
904105,693.00
904121,616.00
904137,615.00
904153,558.00
904168,554.00
904184,610.00
904200,736.00
904216,825.00
904232,746.00
904247,713.00
904263,727.00
904279,704.00
904295,856.00
904311,1024.00
904327,369.00
904342,425.00
904358,517.00
904374,550.00
904390,608.00
904406,566.00
904421,638.00
904437,613.00
904453,770.00
904469,833.00
904485,717.00
904501,629.00
904516,581.00
904532,567.00
904548,615.00
904564,610.00
904580,598.00
904595,547.00
904611,584.00
904627,476.00
904643,471.00
904659,641.00
904675,946.00
904690,246.00
904706,304.00
904722,415.00
904738,497.00
904754,525.00
904769,532.00
904785,574.00
904801,737.00
904817,828.00
904833,819.00
904849,761.00
904864,727.00
904880,678.00
904896,675.00
904912,717.00
904928,770.00
904944,769.00
904959,680.00
904975,652.00
904991,617.00
905007,510.00
905023,807.00
905038,990.00
905054,230.00
905070,345.00
905086,510.00
905102,609.00
905118,625.00
905133,688.00
905149,805.00
905165,814.00
905181,847.00
905197,771.00
905212,840.00
905228,677.00
905244,481.00
905260,452.00
905276,477.00
905292,557.00
905307,620.00
905323,557.00
905339,441.00
905355,396.00
905371,484.00
905386,746.00
905402,705.00
905418,44.00
905434,404.00
905450,492.00
905466,546.00
905481,726.00
905497,713.00
905513,733.00
905529,790.00
905545,903.00
905560,943.00
905576,901.00
905592,798.00
905608,808.00
905624,838.00
905640,854.00
905655,793.00
905671,750.00
905687,680.00
905768,310.00
905778,217.00
905788,340.00
905798,535.00
905808,701.00
905818,668.00
905828,640.00
905838,593.00
905848,640.00
905858,723.00
905868,759.00
905878,752.00
905893,800.00
905908,826.00
905924,790.00
905940,690.00
905956,655.00
905972,686.00
905988,624.00
906003,602.00
906075,496.00
906086,478.00
906096,465.00
906106,723.00
906116,901.00
906126,730.00
906136,247.00
906146,353.00
906156,521.00
906166,617.00
906177,608.00
906193,633.00
906209,686.00
906325,712.00
906337,787.00
906347,726.00
906357,787.00
906367,784.00
906378,757.00
906388,725.00
906398,621.00
906408,598.00
906419,580.00
906429,577.00
906440,549.00
906450,471.00
906460,631.00
906470,973.00
906480,1024.00
906490,729.00
906500,352.00
906510,313.00
906525,506.00
906541,617.00
906557,615.00
906573,619.00
906589,666.00
906605,678.00
906620,763.00
906636,726.00
906652,654.00
906668,537.00
906684,461.00
906699,468.00
906715,505.00
906731,590.00
906747,547.00
906763,556.00
906779,405.00
906794,462.00
906810,439.00
906826,706.00
906842,865.00
906858,154.00
906873,285.00
906889,508.00
906905,640.00
906921,700.00
906937,673.00
906953,708.00
906968,766.00
906984,874.00
907000,757.00
907016,738.00
907032,608.00
907047,614.00
907063,486.00
907079,586.00
907095,561.00
907111,598.00
907127,626.00
907142,698.00
907158,562.00
907174,540.00
907190,934.00
907206,531.00
907222,264.00
907237,465.00
907253,511.00
907269,488.00
907285,502.00
907301,530.00
907317,528.00
907332,472.00
907348,477.00
907364,458.00
907380,391.00
907396,404.00
907411,381.00
907427,506.00
907443,440.00
907459,603.00
907475,509.00
907490,453.00
907506,424.00
907522,385.00
907537,483.00
907554,1024.00
907569,354.00
907585,316.00
907601,428.00
907617,593.00
907633,614.00
907649,595.00
907664,643.00
907680,699.00
907696,761.00
907712,692.00
907728,606.00
907744,572.00
907759,512.00
907775,550.00
907791,556.00
907807,655.00
907823,646.00
907838,508.00
907854,502.00
907870,507.00
907886,446.00
907902,606.00
907918,940.00
907933,184.00
907949,269.00
907965,458.00
907981,507.00
907997,521.00
908012,573.00
908028,631.00
908044,686.00
908060,698.00
908076,697.00
908092,630.00
908107,607.00
908123,646.00
908139,786.00
908155,748.00
908171,725.00
908186,658.00
908202,657.00
908218,678.00
908234,646.00
908250,642.00
908266,992.00
908281,785.00
908297,290.00
908313,387.00
908329,523.00
908345,593.00
908360,616.00
908376,593.00
908392,574.00
908408,650.00
908424,761.00
908440,697.00
908455,747.00
908471,677.00
908487,613.00
908503,606.00
908519,609.00
908534,661.00
908550,570.00
908566,543.00
908582,464.00
908598,375.00
908614,506.00
908629,826.00
908645,135.00
908661,86.00
908677,274.00
908693,349.00
908708,373.00
908724,397.00
908740,337.00
908756,437.00
908772,528.00
908788,610.00
908803,601.00
908819,667.00
908835,667.00
908851,633.00
908867,733.00
908964,735.00
908974,895.00
908984,1024.00
908994,858.00
909004,396.00
909014,366.00
909024,471.00
909034,557.00
909044,525.00
909054,691.00
909064,604.00
909074,572.00
909084,658.00
909094,626.00
909105,706.00
909120,788.00
909136,906.00
909151,780.00
909167,746.00
909183,672.00
909199,642.00
909313,408.00
909325,632.00
909335,895.00
909345,831.00
909355,377.00
909365,194.00
909444,688.00
909455,576.00
909465,715.00
909475,772.00
909486,777.00
909496,761.00
909507,718.00
909517,697.00
909527,653.00
909537,662.00
909547,639.00
909557,656.00
909567,713.00
909577,694.00
909587,726.00
909597,723.00
909607,686.00
909617,675.00
909627,576.00
909637,573.00
909647,528.00
909657,492.00
909667,487.00
909677,550.00
909689,850.00
909705,594.00
909721,112.00
909737,332.00
909753,453.00
909768,544.00
909784,708.00
909800,679.00
909816,672.00
909832,792.00
909848,792.00
909863,741.00
909879,655.00
909895,667.00
909911,532.00
909927,633.00
909942,508.00
909958,626.00
909974,445.00
909990,514.00
910006,442.00
910022,451.00
910037,777.00
910053,830.00
910069,51.00
910085,355.00
910101,485.00
910117,684.00
910132,629.00
910148,748.00
910164,754.00
910180,784.00
910196,952.00
910211,877.00
910227,773.00
910243,798.00
910259,784.00
910275,740.00
910291,799.00
910306,740.00
910322,756.00
910338,603.00
910354,579.00
910370,492.00
910385,592.00
910401,980.00
910417,288.00
910433,380.00
910449,569.00
910465,613.00
910480,662.00
910496,642.00
910512,701.00
910528,758.00
910544,860.00
910559,798.00
910575,811.00
910591,717.00
910607,716.00
910623,681.00
910637,676.00
910654,674.00
910670,677.00
910686,651.00
910702,557.00
910718,586.00
910733,412.00
910749,682.00
910765,982.00
910781,254.00
910797,490.00
910813,608.00
910828,644.00
910844,710.00
910860,726.00
910876,790.00
910892,865.00
910907,901.00
910923,913.00
910939,817.00
910955,772.00
910971,718.00
910987,751.00
911002,687.00
911018,807.00
911034,652.00
911050,649.00
911066,505.00
911081,530.00
911097,681.00
911113,1024.00
911129,512.00
911145,441.00
911161,574.00
911176,723.00
911192,730.00
911208,826.00
911224,711.00
911240,715.00
911255,686.00
911271,704.00
911287,609.00
911303,584.00
911319,582.00
911335,569.00
911350,595.00
911366,557.00
911382,509.00
911398,375.00
911414,428.00
911429,268.00
911445,562.00
911461,922.00
911477,404.00
911493,313.00
911509,453.00
911524,608.00
911540,751.00
911556,761.00
911572,792.00
911587,830.00
911603,901.00
911619,868.00
911635,849.00
911651,754.00
911667,733.00
911683,648.00
911698,699.00
911714,696.00
911730,672.00
911746,522.00
911762,471.00
911777,654.00
911793,594.00
911809,801.00
911825,877.00
911841,241.00
911857,446.00
911872,537.00
911888,595.00
911904,621.00
911920,578.00
911936,628.00
911951,641.00
911967,640.00
911983,643.00
911999,530.00
912015,528.00
912031,538.00
912046,546.00
912062,556.00
912078,530.00
912094,571.00
912110,482.00
912126,415.00
912141,523.00
912157,605.00
912173,1004.00
912189,310.00
912205,350.00
912220,574.00
912236,622.00
912252,657.00
912268,684.00
912284,732.00
912300,727.00
912315,843.00
912331,773.00
912590,630.00
912600,625.00
912610,640.00
912620,658.00
912630,672.00
912640,675.00
912650,740.00
912660,733.00
912701,728.00
912712,680.00
912722,630.00
912732,571.00
912742,621.00
912752,616.00
912762,742.00
912772,745.00
912782,700.00
912792,634.00
912802,677.00
912812,644.00
912902,358.00
912913,433.00
912923,523.00
912933,558.00
912943,609.00
912953,597.00
912963,579.00
912973,594.00
912983,697.00
912993,590.00
913003,613.00
913013,747.00
913023,696.00
913033,744.00
913043,730.00
913053,602.00
913063,561.00
913073,577.00
913083,566.00
913093,615.00
913104,728.00
913115,666.00
913126,619.00
913136,634.00
913146,592.00
913157,451.00
913168,464.00
913179,463.00
913189,444.00
913199,355.00
913209,289.00
913219,547.00
913229,835.00
913239,524.00
913249,44.00
913259,84.00
913269,192.00
913279,269.00
913289,305.00
913299,293.00
913309,349.00
913319,365.00
913329,438.00
913344,404.00
913359,512.00
913375,398.00
913391,504.00
913407,242.00
913423,385.00
913438,471.00
913454,478.00
913470,532.00
913486,473.00
913502,472.00
913518,372.00
913533,314.00
913549,337.00
913565,448.00
913581,837.00
913597,101.00
913612,46.00
913628,256.00
913644,343.00
913660,358.00
913676,404.00
913692,382.00
913707,469.00
913723,606.00
913739,674.00
913755,649.00
913771,642.00
913787,562.00
913802,570.00
913818,566.00
913834,595.00
913850,545.00
913866,499.00
913881,361.00
913897,317.00
913913,332.00
913929,744.00
913945,145.00
913961,16.00
913976,122.00
913992,280.00
914008,315.00
914024,410.00
914040,485.00
914055,553.00
914071,609.00
914087,673.00
914103,638.00
914119,609.00
914135,549.00
914150,537.00
914166,577.00
914182,660.00
914198,602.00
914214,577.00
914229,588.00
914245,555.00
914261,595.00
914277,968.00
914293,529.00
914309,313.00
914324,411.00
914340,546.00
914356,501.00
914372,471.00
914388,526.00
914403,590.00
914419,651.00
914435,742.00
914451,773.00
914467,728.00
914483,621.00
914498,631.00
914514,640.00
914530,620.00
914546,577.00
914562,396.00
914577,330.00
914593,248.00
914609,369.00
914625,653.00
914641,172.00
914657,64.00
914672,157.00
914688,399.00
914704,385.00
914720,354.00
914736,425.00
914751,493.00
914767,654.00
914783,663.00
914799,649.00
914815,591.00
914831,578.00
914846,569.00
914862,631.00
914878,666.00
914894,675.00
914910,620.00
914926,583.00
914941,581.00
914957,642.00
914973,1024.00
914989,269.00
915005,172.00
915020,421.00
915036,441.00
915052,420.00
915068,456.00
915084,591.00
915100,709.00
915115,796.00
915131,761.00
915147,626.00
915163,517.00
915179,496.00
915194,517.00
915210,562.00
915226,390.00
915242,298.00
915258,267.00
915274,252.00
915289,235.00
915305,411.00
915321,729.00
915337,16.00
915353,19.00
915368,158.00
915384,210.00
915400,153.00
915416,223.00
915432,361.00
915448,507.00
915463,518.00
915479,514.00
915495,428.00
915511,531.00
915527,578.00
915542,627.00
915558,664.00
915574,692.00
915590,588.00
915674,457.00
915684,30.00
915694,120.00
915704,246.00
915714,353.00
915724,330.00
915734,396.00
915744,471.00
915754,448.00
915764,416.00
915774,617.00
915784,625.00
915796,597.00
915811,608.00
915884,345.00
915895,372.00
915905,386.00
915915,382.00
915925,390.00
915935,342.00
915946,292.00
916021,382.00
916031,16.00
916041,16.00
916051,28.00
916061,226.00
916072,315.00
916082,295.00
916092,368.00
916102,409.00
916112,451.00
916122,411.00
916133,544.00
916143,561.00
916153,520.00
916163,547.00
916175,585.00
916191,652.00
916207,666.00
916223,625.00
916239,617.00
916254,718.00
916270,756.00
916286,590.00
916302,554.00
916318,482.00
916333,480.00
916349,710.00
916365,826.00
916381,140.00
916397,291.00
916413,511.00
916428,606.00
916444,656.00
916460,585.00
916476,543.00
916492,665.00
916508,718.00
916523,592.00
916539,476.00
916555,397.00
916571,334.00
916587,411.00
916602,392.00
916618,402.00
916634,324.00
916650,272.00
916666,344.00
916682,209.00
916697,677.00
916713,330.00
916729,18.00
916745,87.00
916761,367.00
916776,411.00
916792,436.00
916808,524.00
916824,520.00
916840,660.00
916856,680.00
916871,657.00
916887,609.00
916903,522.00
916919,516.00
916935,593.00
916950,590.00
916966,498.00
916982,496.00
916998,463.00
917014,344.00
917030,434.00
917045,800.00
917061,219.00
917077,132.00
917093,524.00
917109,548.00
917124,572.00
917140,573.00
917156,617.00
917172,693.00
917188,684.00
917204,589.00
917219,526.00
917235,405.00
917251,406.00
917267,365.00
917283,469.00
917298,404.00
917314,356.00
917330,310.00
917346,304.00
917362,242.00
917378,252.00
917393,608.00
917409,30.00
917425,72.00
917441,272.00
917457,398.00
917472,439.00
917488,433.00
917504,497.00
917520,617.00
917536,670.00
917552,742.00
917567,745.00
917583,727.00
917599,686.00
917615,723.00
917631,724.00
917647,672.00
917662,568.00
917678,573.00
917694,459.00
917710,360.00
917726,605.00
917741,905.00
917757,258.00
917773,289.00
917789,449.00
917805,499.00
917821,507.00
917836,535.00
917852,619.00
917868,653.00
917884,668.00
917900,727.00
917915,651.00
917931,640.00
917947,573.00
917963,568.00
917979,654.00
917995,631.00
918010,511.00
918026,424.00
918042,366.00
918058,367.00
918074,614.00
918089,955.00
918105,81.00
918121,204.00
918137,319.00
918153,456.00
918169,571.00
918184,613.00
918199,685.00
918216,763.00
918232,848.00
918248,693.00
918263,687.00
918279,580.00
918295,542.00
918311,434.00
918327,567.00
918343,548.00
918358,532.00
918374,418.00
918390,376.00
918406,313.00
918422,764.00
918437,809.00
918453,77.00
918469,334.00
918485,454.00
918501,482.00
918517,452.00
918532,481.00
918548,428.00
918564,553.00
918580,689.00
918596,591.00
918611,545.00
918627,417.00
918643,499.00
918659,528.00
918675,555.00
918691,382.00
918706,382.00
918722,360.00
918738,334.00
918754,542.00
918770,871.00
918786,493.00
918850,828.00
918861,763.00
918871,759.00
918881,840.00
918892,820.00
918948,896.00
918959,784.00
918969,748.00
918979,675.00
918989,666.00
918999,628.00
919009,616.00
919019,655.00
919029,612.00
919039,506.00
919049,532.00
919059,476.00
919070,532.00
919086,530.00
919102,502.00
919179,403.00
919192,313.00
919203,374.00
919214,396.00
919225,452.00
919236,363.00
919246,406.00
919256,517.00
919266,531.00
919276,511.00
919286,516.00
919296,520.00
919308,528.00
919323,390.00
919339,420.00
919355,669.00
919371,568.00
919387,510.00
919402,518.00
919418,469.00
919434,217.00
919450,555.00
919466,922.00
919482,172.00
919497,297.00
919513,544.00
919529,540.00
919545,414.00
919561,484.00
919576,411.00
919592,628.00
919608,675.00
919624,724.00
919640,570.00
919656,542.00
919671,483.00
919687,582.00
919703,514.00
919719,582.00
919735,554.00
919750,509.00
919766,331.00
919782,319.00
919798,652.00
919814,441.00
919830,16.00
919845,122.00
919861,250.00
919877,326.00
919893,391.00
919909,364.00
919924,425.00
919940,484.00
919956,495.00
919972,500.00
919988,308.00
920004,338.00
920019,331.00
920035,363.00
920051,415.00
920067,526.00
920083,401.00
920099,423.00
920114,318.00
920130,460.00
920146,1024.00
920162,532.00
920177,414.00
920193,571.00
920209,664.00
920225,726.00
920241,704.00
920257,632.00
920273,711.00
920288,725.00
920303,700.00
920320,648.00
920336,506.00
920352,576.00
920367,493.00
920383,484.00
920399,485.00
920415,464.00
920431,403.00
920446,436.00
920462,358.00
920478,580.00
920494,891.00
920510,55.00
920526,117.00
920541,388.00
920557,282.00
920573,440.00
920589,367.00
920605,436.00
920620,513.00
920636,519.00
920652,481.00
920668,416.00
920684,449.00
920700,484.00
920715,469.00
920731,574.00
920747,542.00
920763,401.00
920779,289.00
920794,412.00
920810,458.00
920826,788.00
920841,836.00
920858,184.00
920872,262.00
920889,548.00
920905,474.00
920921,535.00
920937,532.00
920953,558.00
920968,678.00
920984,661.00
921000,687.00
921015,481.00
921032,591.00
921047,464.00
921063,616.00
921079,583.00
921095,570.00
921111,291.00
921127,309.00
921142,257.00
921158,162.00
921174,590.00
921190,268.00
921206,17.00
921221,103.00
921237,195.00
921253,265.00
921269,346.00
921285,375.00
921301,427.00
921316,469.00
921332,452.00
921348,389.00
921364,514.00
921380,440.00
921396,485.00
921411,559.00
921427,572.00
921443,510.00
921459,562.00
921475,691.00
921490,742.00
921506,998.00
921522,1024.00
921538,410.00
921554,405.00
921570,663.00
921585,727.00
921601,580.00
921617,687.00
921633,669.00
921649,676.00
921665,789.00
921733,620.00
921744,614.00
921754,598.00
921764,600.00
921774,617.00
922058,710.00
922068,561.00
922078,582.00
922088,633.00
922098,718.00
922109,682.00
922120,617.00
922131,626.00
922142,544.00
922152,557.00
922162,570.00
922173,561.00
922183,631.00
922193,886.00
922204,880.00
922214,258.00
922224,324.00
922234,312.00
922244,307.00
922254,537.00
922264,612.00
922274,471.00
922284,562.00
922294,532.00
922304,561.00
922314,534.00
922324,736.00
922334,684.00
922483,217.00
922494,242.00
922504,255.00
922514,153.00
922524,475.00
922534,690.00
922544,499.00
922554,15.00
922564,16.00
922574,20.00
922584,166.00
922594,317.00
922604,278.00
922614,344.00
922624,219.00
922634,405.00
922644,436.00
922654,580.00
922664,554.00
922674,605.00
922684,701.00
922694,674.00
922704,583.00
922714,648.00
922724,569.00
922734,612.00
922744,765.00
922754,789.00
922766,906.00
922777,710.00
922787,760.00
922797,666.00
922807,660.00
922817,749.00
922827,656.00
922837,617.00
922847,606.00
922857,637.00
922867,1024.00
922877,900.00
922887,320.00
922897,280.00
922907,436.00
922917,568.00
922927,505.00
922937,675.00
922947,630.00
922957,670.00
922967,729.00
922977,664.00
922993,862.00
923009,734.00
923025,845.00
923041,684.00
923057,624.00
923072,581.00
923088,458.00
923104,498.00
923120,426.00
923136,350.00
923152,202.00
923167,284.00
923183,157.00
923199,525.00
923215,608.00
923231,15.00
923246,213.00
923262,282.00
923278,513.00
923294,470.00
923310,530.00
923326,567.00
923341,596.00
923357,664.00
923373,717.00
923389,846.00
923405,645.00
923420,629.00
923436,764.00
923452,629.00
923468,732.00
923484,471.00
923500,651.00
923515,445.00
923531,595.00
923547,958.00
923563,152.00
923579,248.00
923594,358.00
923610,493.00
923626,626.00
923642,511.00
923658,568.00
923674,634.00
923689,613.00
923705,469.00
923721,357.00
923737,322.00
923753,303.00
923769,410.00
923784,273.00
923800,332.00
923816,166.00
923832,274.00
923848,257.00
923863,108.00
923879,614.00
923895,230.00
923911,134.00
923927,253.00
923943,334.00
923958,547.00
923974,498.00
923990,523.00
924006,736.00
924022,949.00
924038,906.00
924053,798.00
924069,642.00
924085,742.00
924101,538.00
924117,736.00
924132,651.00
924148,582.00
924164,529.00
924179,554.00
924196,408.00
924211,553.00
924227,958.00
924243,243.00
924259,336.00
924275,460.00
924291,585.00
924306,559.00
924322,363.00
924338,481.00
924354,426.00
924370,442.00
924385,514.00
924401,345.00
924417,428.00
924433,307.00
924449,512.00
924465,439.00
924480,448.00
924496,457.00
924512,183.00
924528,680.00
924544,666.00
924560,927.00
924575,578.00
924591,381.00
924607,544.00
924623,590.00
924639,604.00
924653,644.00
924670,557.00
924686,688.00
924702,648.00
924718,734.00
924733,738.00
924749,494.00
924765,594.00
924781,510.00
924797,543.00
924813,475.00
924828,510.00
924844,449.00
924860,528.00
924876,424.00
924892,789.00
924907,800.00
924923,160.00
924939,317.00
924955,326.00
924971,268.00
924987,195.00
925002,310.00
925018,257.00
925034,442.00
925050,457.00
925066,465.00
925082,324.00
925097,252.00
925113,291.00
925129,285.00
925145,265.00
925161,289.00
925176,364.00
925192,331.00
925208,462.00
925224,690.00
925240,765.00
925256,310.00
925270,561.00
925287,680.00
925303,760.00
925319,724.00
925335,804.00
925351,749.00
925366,861.00
925498,728.00
925509,631.00
925519,634.00
925529,571.00
925539,546.00
925549,597.00
925559,753.00
925569,1024.00
925579,780.00
925631,462.00
925642,473.00
925652,462.00
925662,415.00
925672,505.00
925682,493.00
925692,475.00
925702,643.00
926050,651.00
926061,692.00
926071,593.00
926081,634.00
926091,650.00
926102,654.00
926113,690.00
926124,628.00
926135,749.00
926145,676.00
926155,643.00
926166,588.00
926176,569.00
926186,552.00
926196,566.00
926206,511.00
926217,434.00
926227,540.00
926237,850.00
926247,789.00
926257,183.00
926267,117.00
926277,132.00
926287,164.00
926297,199.00
926307,339.00
926317,356.00
926327,233.00
926337,426.00
926347,341.00
926357,613.00
926367,646.00
926377,609.00
926387,565.00
926397,724.00
926407,696.00
926417,710.00
926427,533.00
926437,580.00
926447,673.00
926457,842.00
926467,752.00
926477,685.00
926487,691.00
926497,725.00
926507,704.00
926517,660.00
926527,630.00
926537,657.00
926547,631.00
926557,651.00
926567,798.00
926577,1024.00
926587,801.00
926597,367.00
926607,349.00
926617,492.00
926632,654.00
926648,584.00
926663,554.00
926679,702.00
926695,684.00
926711,770.00
926727,849.00
926742,1013.00
926758,854.00
926774,773.00
926790,770.00
926806,781.00
926822,798.00
926837,668.00
926853,620.00
926869,529.00
926885,615.00
926901,691.00
926916,926.00
926932,292.00
926948,334.00
926964,554.00
926980,590.00
926996,511.00
927011,578.00
927027,657.00
927043,823.00
927059,870.00
927075,857.00
927091,857.00
927106,747.00
927122,774.00
927138,777.00
927154,776.00
927170,772.00
927185,616.00
927201,620.00
927217,655.00
927233,715.00
927249,1024.00
927264,260.00
927280,330.00
927296,528.00
927312,600.00
927328,477.00
927344,663.00
927359,824.00
927375,775.00
927391,756.00
927407,709.00
927423,625.00
927439,562.00
927454,513.00
927469,367.00
927486,447.00
927502,414.00
927518,439.00
927533,249.00
927549,464.00
927565,604.00
927581,853.00
927597,14.00
927612,76.00
927628,255.00
927644,368.00
927660,627.00
927676,420.00
927692,651.00
927707,637.00
927723,738.00
927739,932.00
927755,770.00
927771,777.00
927787,728.00
927802,677.00
927818,734.00
927834,733.00
927850,609.00
927866,581.00
927881,474.00
927897,507.00
927913,1017.00
927929,165.00
927945,280.00
927961,564.00
927976,646.00
927992,597.00
928008,651.00
928024,726.00
928040,737.00
928055,766.00
928071,787.00
928086,706.00
928103,669.00
928119,615.00
928135,580.00
928150,664.00
928166,699.00
928182,546.00
928198,529.00
928213,463.00
928229,447.00
928245,944.00
928261,417.00
928277,338.00
928293,526.00
928308,694.00
928324,633.00
928340,654.00
928356,673.00
928372,756.00
928388,844.00
928403,843.00
928419,763.00
928435,753.00
928451,672.00
928467,705.00
928482,763.00
928498,710.00
928514,636.00
928530,469.00
928546,616.00
928562,576.00
928577,901.00
928593,912.00
928609,349.00
928625,533.00
928687,675.00
928698,556.00
928708,576.00
928718,601.00
928728,556.00
928738,567.00
928748,617.00
928758,472.00
928813,600.00
928824,512.00
928834,465.00
928844,368.00
928854,304.00
928864,375.00
928937,247.00
928947,318.00
928957,363.00
928967,501.00
928977,600.00
928987,680.00
928997,782.00
929007,702.00
929017,770.00
929027,820.00
929037,872.00
929047,905.00
929057,894.00
929068,919.00
929084,870.00
929099,665.00
929115,637.00
929131,636.00
929147,666.00
929163,625.00
929179,588.00
929194,638.00
929210,621.00
929226,687.00
929242,1024.00
929258,666.00
929273,309.00
929289,471.00
929305,640.00
929321,606.00
929337,561.00
929353,564.00
929368,679.00
929384,710.00
929400,531.00
929415,582.00
929432,530.00
929447,540.00
929463,533.00
929479,585.00
929495,632.00
929511,661.00
929527,445.00
929542,606.00
929558,472.00
929574,788.00
929590,811.00
929606,209.00
929621,320.00
929637,586.00
929653,510.00
929669,608.00
929685,581.00
929701,638.00
929716,708.00
929732,783.00
929748,740.00
929764,646.00
929780,631.00
929796,666.00
929811,680.00
929827,794.00
929843,741.00
929859,561.00
929875,626.00
929890,583.00
929906,715.00
929922,1021.00
929938,185.00
929954,389.00
929970,456.00
929985,475.00
930001,381.00
930017,565.00
930033,576.00
930049,591.00
930064,585.00
930080,633.00
930096,490.00
930112,624.00
930128,473.00
930144,594.00
930159,592.00
930175,565.00
930191,520.00
930207,582.00
930223,552.00
930238,826.00
930254,902.00
930270,328.00
930286,460.00
930302,504.00
930318,656.00
930333,560.00
930349,621.00
930365,656.00
930381,774.00
930397,633.00
930412,739.00
930428,794.00
930443,801.00
930460,673.00
930476,696.00
930492,724.00
930506,691.00
930523,649.00
930539,430.00
930555,432.00
930571,656.00
930586,737.00
930602,74.00
930618,124.00
930634,282.00
930650,409.00
930666,472.00
930681,522.00
930697,560.00
930713,550.00
930729,692.00
930745,787.00
930760,614.00
930776,638.00
930791,709.00
930808,596.00
930824,649.00
930839,617.00
930855,560.00
930871,622.00
930887,486.00
930903,819.00
930919,866.00
930934,281.00
930950,354.00
930966,528.00
930982,565.00
930998,564.00
931013,597.00
931029,675.00
931045,712.00
931061,831.00
931077,848.00
931093,775.00
931108,714.00
931124,773.00
931140,729.00
931156,710.00
931172,631.00
931188,538.00
931203,556.00
931219,463.00
931235,782.00
931251,746.00
931267,164.00
931282,254.00
931298,476.00
931314,495.00
931330,495.00
931346,427.00
931362,615.00
931377,723.00
931393,608.00
931409,749.00
931425,658.00
931441,600.00
931456,704.00
931472,809.00
931487,742.00
931504,661.00
931520,546.00
931535,495.00
931551,566.00
931567,885.00
931583,556.00
931704,793.00
931715,786.00
931725,773.00
931735,652.00
931745,643.00
931755,714.00
931765,652.00
931775,556.00
931785,494.00
931795,512.00
931823,488.00
931834,406.00
931844,376.00
931854,463.00
931864,362.00
931874,321.00
931884,640.00
931895,750.00
931905,834.00
931915,247.00
931925,18.00
931935,64.00
932037,677.00
932047,617.00
932057,614.00
932067,696.00
932078,721.00
932088,745.00
932099,736.00
932110,747.00
932121,673.00
932131,753.00
932141,702.00
932151,661.00
932161,662.00
932171,660.00
932181,526.00
932191,521.00
932202,621.00
932216,496.00
932231,844.00
932247,192.00
932263,140.00
932279,396.00
932295,556.00
932311,620.00
932326,533.00
932342,592.00
932358,682.00
932374,713.00
932390,689.00
932406,586.00
932421,591.00
932437,535.00
932453,565.00
932469,624.00
932485,462.00
932500,585.00
932516,402.00
932532,458.00
932548,444.00
932564,787.00
932580,117.00
932595,187.00
932611,461.00
932627,568.00
932642,556.00
932659,613.00
932674,641.00
932690,684.00
932706,749.00
932722,745.00
932738,732.00
932753,607.00
932769,693.00
932785,654.00
932801,664.00
932817,639.00
932833,607.00
932848,446.00
932864,476.00
932880,565.00
932896,918.00
932912,393.00
932928,337.00
932943,579.00
932959,598.00
932975,609.00
932991,734.00
933007,688.00
933022,761.00
933038,730.00
933054,636.00
933070,489.00
933086,564.00
933102,487.00
933117,594.00
933133,545.00
933149,608.00
933165,605.00
933181,634.00
933196,375.00
933212,558.00
933228,1022.00
933244,320.00
933260,350.00
933276,609.00
933291,640.00
933307,746.00
933323,782.00
933339,895.00
933355,843.00
933370,942.00
933386,910.00
933402,874.00
933418,737.00
933434,834.00
933450,723.00
933465,691.00
933481,699.00
933497,592.00
933513,546.00
933529,574.00
933545,642.00
933560,1024.00
933576,506.00
933592,350.00
933608,615.00
933624,702.00
933639,678.00
933655,650.00
933670,760.00
933687,759.00
933703,877.00
933718,858.00
933734,763.00
933750,754.00
933766,692.00
933782,775.00
933798,799.00
933813,670.00
933829,548.00
933845,521.00
933861,610.00
933877,756.00
933892,1024.00
933908,542.00
933924,428.00
933940,572.00
933956,673.00
933972,725.00
933987,644.00
934003,794.00
934019,784.00
934035,835.00
934051,812.00
934066,716.00
934082,694.00
934098,585.00
934114,417.00
934130,664.00
934146,500.00
934161,531.00
934177,588.00
934193,525.00
934209,676.00
934225,942.00
934240,230.00
934256,328.00
934272,425.00
934288,418.00
934304,461.00
934320,375.00
934335,651.00
934351,612.00
934367,702.00
934383,564.00
934399,638.00
934415,506.00
934430,473.00
934446,421.00
934462,454.00
934478,519.00
934494,536.00
934509,357.00
934525,601.00
934541,765.00
934557,918.00
934857,557.00
934868,588.00
934878,931.00
934888,1024.00
934898,571.00
934908,234.00
934918,328.00
934971,501.00
934982,588.00
934992,605.00
935002,712.00
935012,716.00
935022,765.00
935032,792.00
935042,736.00
935052,713.00
935062,654.00
935115,676.00
935127,745.00
935138,625.00
935148,638.00
935159,629.00
935173,580.00
935184,556.00
935194,516.00
935205,759.00
935215,1024.00
935225,757.00
935235,301.00
935245,380.00
935255,309.00
935265,436.00
935275,588.00
935285,591.00
935295,521.00
935305,558.00
935315,571.00
935325,589.00
935335,692.00
935345,681.00
935355,605.00
935365,724.00
935376,622.00
935386,620.00
935396,481.00
935406,641.00
935416,641.00
935426,631.00
935436,689.00
935446,641.00
935456,638.00
935466,562.00
935476,577.00
935486,620.00
935496,480.00
935506,382.00
935516,429.00
935526,346.00
935536,578.00
935546,848.00
935556,285.00
935566,54.00
935576,235.00
935586,202.00
935596,412.00
935606,453.00
935617,370.00
935633,447.00
935648,584.00
935664,513.00
935680,640.00
935696,597.00
935712,625.00
935727,652.00
935743,485.00
935759,626.00
935775,709.00
935791,681.00
935807,658.00
935822,710.00
935838,655.00
935854,586.00
935870,1024.00
935886,544.00
935901,279.00
935917,468.00
935933,663.00
935949,540.00
935965,567.00
935981,600.00
935996,732.00
936012,682.00
936028,888.00
936044,821.00
936060,716.00
936075,679.00
936091,697.00
936107,757.00
936123,749.00
936139,626.00
936153,656.00
936170,531.00
936186,547.00
936202,925.00
936218,622.00
936234,301.00
936249,454.00
936265,579.00
936281,630.00
936297,511.00
936313,570.00
936329,810.00
936344,880.00
936360,873.00
936376,790.00
936391,758.00
936408,705.00
936423,692.00
936439,673.00
936455,729.00
936471,569.00
936487,554.00
936502,471.00
936518,593.00
936534,972.00
936550,258.00
936566,272.00
936582,388.00
936597,461.00
936613,461.00
936629,511.00
936645,638.00
936661,770.00
936677,797.00
936692,704.00
936708,634.00
936724,641.00
936740,472.00
936756,452.00
936771,508.00
936787,342.00
936803,406.00
936819,410.00
936835,364.00
936851,727.00
936866,737.00
936882,156.00
936898,202.00
936914,279.00
936930,423.00
936946,367.00
936961,706.00
936977,536.00
936993,750.00
937009,728.00
937025,628.00
937040,772.00
937056,734.00
937072,698.00
937088,672.00
937104,708.00
937120,666.00
937135,596.00
937151,589.00
937167,564.00
937183,754.00
937199,405.00
937214,192.00
937230,403.00
937246,511.00
937262,745.00
937278,711.00
937294,711.00
937309,701.00
937325,822.00
937341,832.00
937357,806.00
937373,763.00
937389,638.00
937404,689.00
937420,778.00
937436,736.00
937452,595.00
937468,597.00
937483,585.00
937499,535.00
937515,816.00
937531,463.00
937547,114.00
937563,554.00
937578,519.00
937594,690.00
937610,674.00
937626,658.00
937642,688.00
937657,763.00
937673,776.00
937689,700.00
937705,652.00
937721,574.00
937737,638.00
937752,548.00
937768,572.00
937784,454.00
937799,386.00
937816,376.00
937831,418.00
937847,928.00
937863,104.00
937879,392.00
937895,355.00
937910,553.00
937926,499.00
937942,475.00
937958,486.00
938022,430.00
938033,490.00
938043,474.00
938053,504.00
938063,526.00
938073,438.00
938083,540.00
938093,471.00
938104,474.00
938116,301.00
938132,426.00
938230,523.00
938243,548.00
938253,552.00
938263,629.00
938273,621.00
938283,730.00
938364,639.00
938375,718.00
938385,603.00
938395,713.00
938407,625.00
938418,652.00
938428,586.00
938438,543.00
938448,506.00
938458,358.00
938468,507.00
938478,428.00
938488,522.00
938498,764.00
938508,1024.00
938518,784.00
938528,324.00
938538,235.00
938548,363.00
938558,538.00
938568,598.00
938578,649.00
938591,641.00
938607,639.00
938622,639.00
938638,694.00
938654,665.00
938670,757.00
938685,662.00
938701,590.00
938717,660.00
938733,661.00
938749,626.00
938765,483.00
938781,457.00
938795,604.00
938812,453.00
938828,728.00
938844,1024.00
938860,199.00
938875,350.00
938891,506.00
938907,554.00
938923,574.00
938939,572.00
938955,581.00
938970,577.00
938986,592.00
939002,584.00
939018,579.00
939034,391.00
939049,489.00
939065,477.00
939081,517.00
939097,458.00
939113,487.00
939129,498.00
939144,415.00
939160,778.00
939176,618.00
939192,96.00
939208,178.00
939223,356.00
939239,378.00
939255,415.00
939271,504.00
939287,477.00
939303,584.00
939318,660.00
939334,598.00
939350,580.00
939366,367.00
939382,386.00
939398,480.00
939413,556.00
939429,531.00
939445,446.00
939461,544.00
939477,554.00
939492,996.00
939508,631.00
939523,348.00
939540,558.00
939556,593.00
939572,603.00
939587,675.00
939603,658.00
939619,693.00
939635,832.00
939651,622.00
939666,732.00
939682,570.00
939698,529.00
939714,570.00
939730,691.00
939746,749.00
939761,580.00
939777,520.00
939793,577.00
939809,528.00
939824,964.00
939840,701.00
939856,259.00
939871,436.00
939888,510.00
939904,687.00
939919,598.00
939934,673.00
939951,691.00
939967,816.00
939983,753.00
939998,584.00
940014,681.00
940030,438.00
940046,692.00
940062,664.00
940078,673.00
940093,616.00
940109,564.00
940125,486.00
940141,543.00
940157,1022.00
940173,348.00
940188,174.00
940204,413.00
940220,420.00
940236,425.00
940252,424.00
940267,406.00
940283,582.00
940299,532.00
940315,604.00
940331,624.00
940347,454.00
940362,723.00
940378,553.00
940394,624.00
940410,573.00
940426,498.00
940441,435.00
940457,427.00
940473,476.00
940489,771.00
940505,16.00
940521,304.00
940536,235.00
940552,557.00
940568,340.00
940584,534.00
940600,501.00
940616,480.00
940631,452.00
940647,372.00
940663,628.00
940679,341.00
940695,591.00
940710,655.00
940726,608.00
940742,642.00
940758,702.00
940774,612.00
940790,569.00
940805,926.00
940821,745.00
940837,328.00
940853,427.00
940869,537.00
940884,544.00
940900,482.00
940916,517.00
940952,717.00
940963,673.00
940973,786.00
940983,751.00
940996,742.00
941011,546.00
941027,657.00
941043,628.00
941058,638.00
941074,571.00
941090,481.00
941105,465.00
941122,462.00
941136,816.00
941153,577.00
941169,279.00
941185,377.00
941201,571.00
941217,496.00
941232,492.00
941248,474.00
941264,730.00
941280,788.00
941296,759.00
941312,813.00
941354,651.00
941364,644.00
941374,609.00
941384,597.00
941394,548.00
941456,692.00
941467,792.00
941477,787.00
941487,276.00
941497,192.00
941507,303.00
941517,466.00
941527,465.00
941537,554.00
941549,438.00
941565,630.00
941580,765.00
941596,817.00
941612,796.00
941628,782.00
941644,775.00
941660,691.00
941675,706.00
941690,622.00
941707,465.00
941722,357.00
941739,342.00
941754,414.00
941769,271.00
941786,747.00
941802,511.00
941818,77.00
941833,111.00
941849,324.00
941865,497.00
941881,501.00
941897,544.00
941913,625.00
941928,726.00
941944,727.00
941960,604.00
941976,733.00
941992,693.00
942007,708.00
942023,751.00
942039,715.00
942055,725.00
942071,541.00
942087,573.00
942102,602.00
942118,908.00
942134,253.00
942150,238.00
942166,398.00
942181,583.00
942197,638.00
