770393,259,265,314
770403,288,284,309
770413,269,320,286
770423,269,278,292
770438,234,300,275
770448,287,245,285
770458,244,285,283
770468,257,288,274
770478,236,265,306
770488,290,330,304
770498,296,324,306
770513,287,328,281
770529,280,266,307
770545,351,256,295
770561,298,245,275
770577,290,287,274
770592,304,259,320
770608,267,295,291
770624,275,263,308
770640,287,283,258
770656,267,277,244
770672,269,298,295
770687,303,295,272
770703,337,238,257
770719,337,291,288
770735,376,300,314
770751,352,364,359
770767,360,390,332
770782,406,412,322
770798,440,478,381
770814,480,498,397
770830,500,506,373
770846,505,510,430
770861,495,513,426
770877,491,512,434
770893,468,492,365
770909,386,434,331
770925,382,347,315
770941,326,309,322
770956,333,317,320
770972,361,345,350
770988,349,645,340
771004,295,353,268
771020,254,234,267
771036,241,245,252
771051,304,224,246
771067,271,288,238
771083,278,264,259
771099,251,249,246
771115,279,265,302
771130,322,274,289
771146,268,259,270
771162,317,247,278
771178,285,240,251
771194,364,329,260
771210,395,295,309
771225,308,299,283
771241,348,304,313
771257,309,230,302
771273,346,347,279
771289,289,277,332
771304,318,275,325
771320,322,232,309
771336,320,264,309
771352,289,252,257
771368,288,319,244
771384,299,230,286
771399,257,291,274
771415,336,333,389
771431,455,473,413
771447,495,504,483
771463,510,497,510
771478,504,500,495
771494,512,510,507
771510,505,504,454
771526,501,513,483
771542,506,510,518
771558,511,499,498
771573,508,513,499
771589,490,511,499
771605,485,487,472
771621,498,509,484
771637,496,507,456
771652,429,394,388
771668,310,290,325
771684,332,286,298
771700,329,341,343
771716,318,373,335
771732,263,308,286
771747,239,308,277
771763,222,274,251
771779,235,285,257
771795,227,248,238
771811,287,224,238
771826,290,279,250
771842,260,246,270
771858,252,235,327
771874,286,291,266
771890,311,269,234
771906,284,252,251
771921,292,280,270
771937,300,284,274
771953,298,295,298
771969,314,215,270
771985,229,323,302
772001,332,270,307
772016,321,327,287
772032,293,302,301
772048,310,242,270
772064,322,241,254
772080,318,292,245
772095,274,254,268
772111,286,260,282
772127,287,286,279
772143,358,369,292
772159,480,480,408
772175,481,461,478
772190,502,509,449
772206,505,522,498
772222,501,511,535
772238,509,504,445
772254,511,479,481
772269,511,509,500
772285,510,513,500
772301,506,509,506
772317,487,475,505
772333,507,481,505
772349,483,483,511
772364,512,507,491
772380,521,512,438
772396,495,515,436
772412,476,513,478
772428,475,514,487
772443,493,507,466
772459,484,508,475
772475,492,512,471
772491,509,452,498
772507,515,508,483
772523,505,376,478
772538,508,492,472
772554,497,510,492
772570,517,512,456
772586,489,510,424
772602,486,476,471
772618,507,505,454
772633,514,477,394
772649,487,507,385
772665,501,508,355
772681,469,497,355
772697,405,438,329
772712,378,382,301
772728,329,261,288
772744,315,278,252
772760,302,274,275
772776,296,291,261
772792,295,257,277
772807,301,309,284
772823,258,292,284
772839,233,282,282
772855,297,270,289
772871,347,256,300
772886,334,281,324
772902,402,354,311
772918,416,303,375
772934,370,350,363
772950,403,478,356
772966,488,467,442
772981,511,504,441
772997,514,491,390
773013,507,494,400
773029,462,501,349
773045,444,503,416
773060,433,493,379
773076,374,332,321
773092,317,294,286
773108,287,218,305
773124,245,293,294
773140,308,240,289
773155,360,258,371
773171,322,313,318
773187,288,229,298
773203,269,211,296
773219,254,221,282
773234,243,218,282
773250,252,246,269
773266,272,261,262
773282,261,305,248
773298,288,274,255
773314,288,271,257
773329,235,274,273
773345,299,244,273
773361,352,277,293
773377,278,280,288
773393,297,290,322
773408,316,243,269
773424,263,286,272
773440,218,290,262
773456,280,245,282
773472,296,270,253
773488,300,248,272
773503,302,247,274
773519,236,244,272
773535,241,277,269
773551,284,248,288
773567,251,266,280
773582,255,272,276
773598,287,259,278
773614,285,311,286
773630,259,265,250
773646,261,277,294
773662,276,223,263
773677,252,233,250
773693,262,267,273
773709,320,210,264
773725,288,253,325
773741,256,278,277
773756,256,253,300
773772,337,272,312
773788,314,254,286
773804,253,284,282
773820,279,264,273
773836,219,267,288
773851,286,262,288
773867,294,304,288
773883,307,263,259
773899,204,224,269
773915,266,171,297
773931,267,240,273
773946,284,271,292
773962,296,241,273
773978,271,235,276
773994,277,235,293
774010,316,257,265
774025,228,239,324
774041,315,327,303
774057,378,331,313
774073,407,336,299
774089,380,300,306
774105,337,278,318
774120,357,274,309
774136,402,299,291
774152,316,291,302
774168,345,290,289
774184,330,257,296
774199,359,243,316
774215,405,330,341
774231,452,455,399
774247,476,511,452
774263,491,476,458
774279,508,497,461
774294,505,512,505
774310,512,506,484
774326,512,511,447
774342,511,512,488
774358,510,509,522
774373,508,516,539
774389,512,511,495
774405,509,500,524
774421,513,510,510
774437,507,513,514
774453,510,513,510
774468,515,506,508
774484,510,506,489
774500,508,500,507
774516,515,512,495
774532,500,397,435
774547,395,431,381
774563,363,398,361
774579,374,305,311
774595,266,283,289
774611,245,271,287
774627,271,298,280
774642,308,268,294
774658,253,282,289
774674,247,243,299
774690,244,243,283
774706,298,261,284
774721,275,288,292
774737,302,295,278
774753,315,290,306
774769,370,296,282
774785,352,314,294
774801,340,283,300
774816,352,303,312
774832,315,281,317
774848,279,313,327
774864,302,289,323
774880,276,282,271
774895,305,306,293
774911,328,309,312
774927,331,261,286
774943,275,215,304
774959,305,262,272
774975,292,285,308
774990,320,268,287
775006,265,251,331
775022,304,256,359
775038,343,319,301
775054,287,292,290
775070,341,306,330
775085,439,434,389
775101,466,489,430
775117,495,459,426
775133,477,480,398
775149,401,413,395
775164,393,344,365
775180,319,327,308
775196,346,303,347
775212,293,292,318
775228,262,323,313
775244,293,269,310
775259,302,265,280
775275,270,238,322
775291,260,218,318
775307,253,259,315
775323,247,252,311
775338,266,243,315
775354,267,260,338
775370,332,277,325
775386,284,293,315
775402,306,353,309
775418,300,308,343
775433,303,268,303
775449,302,281,359
775465,311,301,326
775481,359,326,324
775497,421,341,323
775512,314,341,335
775528,337,299,317
775544,350,280,338
775560,350,281,323
775576,329,302,300
775592,368,354,335
775607,329,276,314
775623,331,262,304
775639,344,304,320
775655,447,483,457
775671,503,507,460
775686,512,507,497
775702,514,509,513
775718,514,510,486
775734,507,514,528
775750,512,509,475
775766,507,510,489
775781,512,510,511
775797,507,513,515
775813,508,504,494
775829,508,510,509
775845,512,512,511
775861,517,483,498
775876,511,507,501
775892,522,514,511
775908,509,482,489
775924,534,505,476
775940,474,503,493
775955,511,505,504
775971,510,499,485
775987,509,511,479
776003,506,507,484
776019,496,467,477
776035,493,504,460
776050,495,460,471
776066,491,495,472
776082,470,506,415
776098,489,509,468
776114,419,515,457
776130,469,502,425
776145,413,364,399
776161,340,314,325
776177,351,297,315
776193,335,297,315
776209,352,270,292
776224,333,304,314
776240,308,263,312
776256,308,266,305
776272,282,265,321
776288,382,347,321
776303,339,331,329
776319,335,297,318
776335,316,276,310
776351,304,267,303
776367,282,335,288
776383,318,271,314
776398,307,267,302
776414,318,312,311
776430,296,230,294
776446,293,290,281
776462,312,328,306
776477,297,336,310
776493,362,396,297
776509,401,436,400
776525,408,479,455
776541,400,471,368
776557,402,344,377
776572,329,276,349
776588,305,273,323
776604,246,275,301
776620,247,308,326
776636,259,267,293
776651,241,297,345
776667,233,294,308
776683,269,247,302
776699,240,253,308
776715,233,279,317
776731,288,272,324
776746,429,352,418
776762,493,472,415
776778,485,507,479
776794,508,508,490
776810,504,512,506
776826,478,507,503
776841,506,513,496
776857,505,514,511
776873,508,518,506
776889,512,505,501
776905,502,497,505
776920,505,510,490
776936,504,517,490
776952,509,511,491
776968,511,507,499
776984,513,529,509
777000,514,513,506
777015,482,497,509
777031,500,508,504
777047,500,510,509
777063,509,511,500
777079,505,510,493
777094,515,496,500
777110,500,516,512
777126,506,512,512
777142,514,529,482
777158,513,510,507
777174,507,514,511
777189,514,513,495
777205,493,502,492
777221,510,508,485
777237,484,506,498
777253,503,501,482
777268,509,509,508
777284,504,511,510
777300,504,509,479
777316,475,513,505
777332,502,503,504
777348,510,511,510
777363,511,512,510
777379,511,513,504
777395,508,515,506
777411,504,510,510
777427,487,512,497
777442,508,509,506
777458,498,510,510
777474,510,504,505
777490,501,508,504
777506,507,511,508
777522,493,515,510
777537,509,509,511
777553,495,508,511
777569,509,510,508
777585,511,500,493
777601,511,512,509
777617,509,512,514
777632,507,511,502
777648,512,510,511
777664,513,505,505
777680,513,512,493
777696,503,513,482
777711,511,513,509
777727,511,510,510
777743,507,513,502
777759,511,513,487
777775,512,512,499
777791,510,513,487
777806,512,512,505
777822,507,512,501
777838,511,513,498
777854,512,512,507
777870,486,513,514
777886,478,512,502
777901,488,511,494
777917,509,513,510
777933,491,514,485
777949,509,500,486
777965,494,508,484
777980,489,511,494
777996,430,409,418
778012,385,372,386
778028,301,303,325
778044,246,312,294
778060,300,306,325
778075,308,249,323
778091,279,254,282
778107,280,282,312
778123,328,303,274
778139,258,256,318
778154,298,279,290
778170,260,273,292
778186,265,287,335
778202,261,263,300
778218,262,282,302
778234,290,339,303
778249,322,284,288
778265,291,316,300
778281,291,309,304
778297,313,296,309
778313,280,288,290
778329,388,349,348
778344,454,480,328
778360,500,508,442
778376,499,510,482
778392,508,514,513
778408,512,514,497
778423,502,510,502
778439,510,512,507
778455,501,458,500
778471,493,505,505
778487,509,511,514
778503,509,510,509
778518,510,510,506
778534,511,511,494
778550,490,511,485
778566,508,512,494
778582,503,512,517
778597,483,513,513
778613,487,513,478
778629,509,512,485
778645,512,512,492
778661,513,511,505
778677,512,509,516
778692,514,485,500
778708,508,504,505
778724,511,509,510
778740,510,510,503
778756,512,511,501
778771,512,512,512
778787,511,500,515
778803,503,509,499
778819,511,505,511
778835,514,476,505
778851,513,506,485
778866,512,510,492
778882,508,512,505
778898,512,515,499
778914,487,513,509
778930,504,505,510
778945,510,505,503
778961,512,508,510
778977,511,512,509
778993,511,511,510
779009,513,512,493
779025,507,512,510
779040,507,497,506
779056,511,510,510
779072,512,512,488
779088,512,512,500
779104,503,513,506
779119,510,513,493
779135,512,512,509
779151,513,485,500
779167,508,509,481
779183,505,511,502
779199,510,511,509
779214,496,512,504
779230,510,512,491
779246,510,512,508
779262,511,513,514
779278,482,514,501
779293,508,513,510
779309,511,513,514
779325,513,513,499
779341,511,514,491
779357,511,512,508
779373,512,512,510
779388,510,513,475
779404,500,512,488
779420,510,508,507
779436,500,485,486
779452,489,453,415
779468,457,505,400
779483,327,374,317
779499,303,351,300
779515,311,329,311
779531,256,308,305
779547,269,281,323
779562,303,316,330
779578,296,329,304
779594,335,366,290
779610,295,380,301
779626,255,337,309
779642,209,309,292
779657,281,313,297
779673,272,338,288
779689,250,348,302
779705,289,365,297
779721,280,298,331
779736,283,368,321
779752,249,331,339
779768,274,375,282
779784,318,328,302
779800,313,304,303
779816,279,321,282
779831,264,354,303
779847,294,340,291
779863,287,344,308
779879,259,348,321
779895,276,323,309
779910,254,335,319
779926,284,268,301
779942,250,364,311
779958,297,351,294
779974,264,338,298
779990,278,325,310
780005,289,308,307
780021,276,333,300
780037,257,335,315
780053,287,311,298
780069,294,319,310
780084,227,314,322
780100,240,314,287
780116,293,286,312
780132,235,302,293
780148,268,331,295
780164,291,300,290
780179,272,391,318
780195,245,370,288
780211,281,365,321
780227,385,481,359
780243,483,508,448
780258,509,509,480
780274,504,509,500
780290,511,512,510
816092,26,280
816102,233
816112,257,277,252
816122,229,199,273
816133,208,254,254
816143,187,229,265
816154,185,251,258
816164,166,215,256
816175,204,274,237
816186,163,315,242
816196,222,266,235
816206,265,269,233
816216,197,251,263
816226,203,246,229
816236,200,247,244
816246,198,240,267
816256,257,252,296
816266,246,290,279
816276,230,251,248
816286,188,240,260
816296,245,212,245
816306,182,241,238
816316,189,242,270
816326,207,246,270
816336,218,236,280
816346,172,300,273
816356,251,174,248
816366,223,243,749
816376,242,255,262
816386,203,242,273
816396,203,218,301
816406,216,223,265
816416,188,220,246
816426,214,650,262
816436,195,175,249
816446,203,619,220
816456,224,223,258
816466,173,228,246
816476,234,252,247
816486,172,208,251
816496,150,192,249
816506,148,219,273
816516,204,232,228
816526,167,473,235
816536,203,195,254
816546,199,216,234
816556,272,282,229
816566,246,272,244
816576,220,232,268
816586,269,269,253
816596,262,232,222
816606,205,242,248
816616,229,282,238
816626,296,229,245
816636,245,394,223
816646,221,196,247
816659,268,260,239
816675,245,234,248
816691,186,210,253
816707,174,236,240
816723,237,290,237
816738,260,250,272
816754,319,329,232
816770,462,470,377
816786,506,504,508
816802,508,507,497
816817,513,512,497
816833,514,504,531
816849,512,490,499
816865,483,513,511
816881,508,520,465
816897,510,509,482
816912,491,522,493
816928,511,512,509
816944,511,503,500
816960,504,508,465
816976,500,500,487
816991,493,472,477
817007,503,508,384
817023,440,502,367
817039,339,387,320
817055,307,310,385
817071,233,238,286
817086,210,266,258
817102,185,238,222
817118,228,298,201
817134,221,267,197
817150,209,239,220
817165,242,311,257
817181,283,276,235
817197,251,221,222
817213,268,250,203
817229,265,207,239
817245,245,248,262
817260,220,260,246
817276,301,240,275
817292,231,266,239
817308,225,250,256
817324,236,189,237
817339,210,226,271
817355,255,236,272
817371,276,230,239
817387,235,311,229
817403,211,208,223
817419,251,224,252
817434,243,210,237
817450,205,302,279
817466,184,259,248
817482,241,287,245
817498,228,289,230
817513,215,275,232
817529,241,245,247
817545,265,260,291
817561,211,232,276
817577,238,244,235
817593,233,236,224
817608,190,226,225
817624,239,232,183
817640,190,224,234
817656,237,265,240
817672,171,256,231
817688,255,226,257
817703,211,223,231
817719,198,276,230
817735,211,212,239
817751,199,209,207
817767,266,220,217
817782,223,168,247
817798,221,233,222
817814,222,212,246
817830,174,216,235
817846,223,221,247
817862,228,185,235
817877,212,200,226
817893,213,217,238
817909,229,224,206
817925,246,234,259
817941,289,262,227
817956,328,263,239
817972,265,244,279
817988,260,252,240
818004,261,267,274
818020,241,291,288
818036,283,268,242
818051,302,224,197
818067,289,295,208
818083,310,255,235
818099,293,256,251
818115,216,214,230
818130,221,248,200
818146,270,246,217
818162,252,239,223
818178,272,240,225
818194,344,323,320
818210,466,484,364
818225,507,512,473
818241,502,510,519
818257,483,515,471
818273,507,516,498
818289,505,509,481
818304,508,510,472
818320,513,506,494
818336,512,507,497
818352,509,504,468
818368,512,497,501
818384,506,514,489
818399,497,511,489
818415,497,509,446
818431,508,508,489
818447,481,484,462
818463,503,506,500
818479,512,502,455
818494,513,498,491
818510,463,466,436
818526,371,348,342
818542,308,282,301
818558,301,336,304
818573,333,310,297
818589,328,297,279
818605,348,381,310
818621,372,411,321
818637,390,370,316
818653,293,357,245
818668,315,284,245
818684,295,283,249
818700,277,261,219
818716,243,510,287
818732,258,268,260
818747,264,234,259
818763,260,197,268
818779,210,246,241
818795,242,239,231
818811,219,231,232
818827,235,233,228
818842,238,228,228
818858,241,253,240
818874,281,162,241
818890,238,225,235
818906,238,225,223
818921,250,260,230
818937,258,227,264
818953,251,218,252
818969,310,266,263
818985,311,262,292
819001,334,268,276
819016,250,269,271
819032,260,311,304
819048,338,280,305
819064,330,308,293
819080,258,342,322
819095,209,224,244
819111,250,264,251
819127,294,290,261
819143,231,224,261
819159,249,218,229
819175,267,228,218
819190,245,191,237
819206,229,213,226
819222,203,264,236
819238,217,285,200
819254,200,224,247
819735,
819745,1,272,258
819755,251,251,285
819765,304,273,268
819775,256,283,252
819785,286,231,245
819795,240,249,232
819884,9
819894,247,229,224
819904,239,232,239
819914,224,222,222
819924,216,221,232
820075,43,253,252
820085,225,248,232
820096,248,244,230
820106,285,192,204
820118,293,289,261
820129,224,270,235
820140,226,273,237
820150,252,259,206
820160,219,275,235
820172,180,443,198
820182,242,246,252
820192,194,190,212
820202,194,247,205
820212,180,219,220
820222,213,246,200
820232,209,236,236
820242,153,218,254
820252,220,258,234
820262,241,222,200
820272,245,235,220
820282,277,233,209
820292,242,228,206
820302,280,272,214
820312,258,223,219
820322,312,228,292
820332,270,260,197
820342,261,261,277
820352,214,251,294
820362,310,229,262
820372,311,252,229
820382,294,271,205
820392,252,216,220
820402,222,254,221
820412,223,241,213
820422,258,260,193
820432,312,283,241
820442,264,284,236
820452,272,205,213
820462,424,408,329
820472,484,501,435
820482,509,509,453
820492,486,518,442
820502,510,500,503
820512,502,506,479
820522,510,509,459
820532,512,505,500
820542,508,510,485
820552,507,516,521
820562,508,509,497
820572,503,514,485
820582,515,514,481
820592,508,522,502
820602,508,515,493
820614,473,505,507
820630,501,514,429
820646,362,421,290
820662,410,484,343
820677,442,497,374
820693,387,473,325
820709,269,299,261
820725,231,247,220
820741,228,237,202
820756,236,316,240
820772,200,238,212
820788,207,264,217
820804,214,259,226
820820,284,243,233
820836,263,292,247
820851,300,248,231
820867,284,335,179
820883,258,282,215
820899,210,261,238
820915,245,260,259
820931,226,233,248
820946,281,286,254
820962,275,270,223
820978,243,247,226
820994,234,216,254
821010,299,291,196
821025,235,248,220
821041,279,263,218
821057,226,227,190
821073,225,202,237
821089,210,217,251
821104,267,214,228
821120,272,275,226
821136,248,258,264
821152,282,256,227
821168,250,256,204
821184,229,265,203
821199,190,190,211
821215,245,704,219
821231,273,233,220
821247,206,262,199
821263,170,233,209
821279,244,302,217
821294,252,265,203
821310,206,246,239
821326,199,219,246
821342,187,220,211
821358,134,208,201
821373,198,239,245
821389,160,244,214
821405,161,253,231
821421,179,212,218
821437,155,240,212
821453,186,217,190
821468,201,216,180
821484,181,246,211
821500,178,191,178
821516,215,203,206
821532,207,247,235
821547,151,204,216
821563,210,209,234
821579,250,239,195
821595,237,245,222
821611,186,241,215
821627,228,189,200
821642,293,216,193
821658,292,293,195
821674,217,287,200
821690,271,259,229
821706,236,226,254
821721,217,221,224
821737,169,273,215
821753,216,232,178
821769,213,288,249
821785,222,256,219
821801,197,241,203
821816,203,200,169
821832,201,261,204
821848,213,249,207
821864,245,276,248
821880,229,262,240
821895,171,266,203
821911,199,209,222
821927,154,197,223
821943,177,241,198
821959,191,239,180
821975,253,230,216
821990,207,266,226
822006,264,313,240
822022,260,265,250
822038,267,262,227
822054,228,281,195
822069,199,238,207
822085,218,245,218
822101,177,201,206
822117,229,201,228
822133,185,244,218
822149,203,234,226
822164,193,268,199
822180,156,246,199
822196,160,245,193
822212,184,272,211
822228,220,230,173
822243,165,219,213
822259,213,249,168
822275,233,266,198
822291,313,306,217
822307,306,437,299
822323,267,478,333
822338,336,361,341
822354,280,299,309
822370,254,289,226
822386,275,289,234
822402,223,281,202
822417,264,267,230
822433,257,270,231
822449,203,304,259
822465,229,263,241
822481,215,234,257
822497,203,225,195
822512,200,278,175
822528,257,280,214
822544,254,275,244
822560,203,296,202
822576,183,192,191
822592,185,336,221
822607,283,359,223
822623,367,448,437
822639,477,500,419
822655,499,512,492
822671,480,437,463
822686,504,480,462
822702,510,517,417
822718,515,504,503
822734,511,503,479
822750,497,515,503
822766,494,510,502
822781,503,512,495
822797,494,513,486
822813,516,504,491
822829,479,505,489
822845,383,499,323
822860,295,405,242
822876,208,360,208
822892,305,378,258
822908,289,328,217
822924,232,250,144
822940,154,254,196
823095,153,262,195
823105,187,278,201
823115,197,297,178
823125,260,261,181
823136,210,293,190
823146,239,301,197
823157,542,231,208
823168,212,258,179
823179,227,286,183
823256,218,251,169
823266,239,240,167
823276,249,240,199
823286,193,248,167
823296,188,294,242
823306,277,243,190
823316,246,247,185
823326,221,272,177
823336,214,191,186
823346,171,281,178
823356,210,283,164
823366,222,236,211
823753,
823763,08,202,210
823773,176,257,192
823783,232,297,193
823793,226,282,223
823804,218,299,211
823814,210,265,234
823825,194,256,177
823835,208,164,171
823845,180,305,191
823855,219,262,167
823865,201,260,185
823875,186,244,170
823885,163,256,149
823895,186,281,200
823905,211,262,198
823915,203,234,193
823925,233,259,183
823935,195,270,192
823945,206,284,171
823955,218,298,163
823965,219,291,176
823975,255,293,218
823985,258,267,189
823995,271,309,203
824005,275,320,240
824015,270,275,199
824025,222,289,223
824035,233,320,202
824045,197,308,206
824055,243,269,210
824065,263,296,188
824075,262,297,174
824085,206,285,231
824095,208,262,253
824106,216,185,190
824116,193,248,202
824126,218,303,183
824136,238,294,279
824146,239,284,199
824156,221,249,155
824166,192,249,208
824177,206,257,208
824187,214,238,264
824197,220,259,207
824207,276,248,217
824217,241,302,224
824227,241,277,232
824237,289,313,252
824247,332,371,251
824257,260,347,214
824267,304,361,242
824277,317,344,239
824287,310,373,230
824300,218,286,228
824316,244,295,221
824332,218,297,190
824347,234,305,215
824363,229,267,230
824379,170,311,212
824395,214,289,220
824411,206,330,208
824427,200,342,199
824442,228,339,232
824458,300,294,204
824474,306,308,234
824490,371,469,324
824506,451,504,444
824522,494,511,414
824537,491,512,498
824553,512,512,495
824569,514,512,453
824585,501,513,470
824601,500,513,482
824616,499,505,428
824632,427,505,361
824648,435,476,344
824664,369,366,277
824680,285,335,206
824696,260,288,267
824711,287,320,264
824727,280,317,218
824743,233,327,276
824759,306,369,249
824775,472,494,381
824790,502,509,487
824806,485,499,426
824822,497,509,487
824838,493,511,495
824854,509,515,530
824870,507,499,514
824885,510,508,495
824901,501,517,498
824917,508,511,506
824933,488,503,484
824949,502,503,428
824964,508,513,459
824980,521,504,445
824996,492,515,454
825012,505,495,409
825028,496,512,430
825044,470,518,436
825059,507,520,435
825075,468,511,493
825091,331,371,335
825107,302,378,286
825123,337,383,226
825138,330,447,286
825154,314,495,271
825170,348,457,297
825186,411,457,254
825202,494,505,399
825218,509,509,478
825233,497,488,493
825249,507,506,506
825265,467,511,438
825281,477,514,397
825297,490,509,368
825312,496,415,441
825328,428,398,354
825344,342,324,200
825360,292,311,243
825376,273,292,204
825392,211,288,210
825407,247,306,198
825423,281,313,160
825439,237,279,262
825455,264,310,224
825471,273,312,242
825487,316,301,218
825502,325,337,222
825518,375,400,355
825534,456,493,391
825550,491,465,470
825566,510,502,500
825581,488,512,486
825597,490,509,479
825613,509,507,506
825629,506,507,501
825645,516,507,482
825661,499,514,447
825676,511,489,310
825692,402,484,311
825708,374,504,385
825724,328,470,326
825740,277,395,269
825755,250,313,238
825771,217,342,254
825787,242,302,252
825803,258,304,198
825819,191,268,204
825835,201,282,223
825850,229,274,208
825866,210,309,214
825882,228,290,208
825898,243,287,232
825914,235,297,193
825929,231,299,217
825945,173,277,210
825961,226,269,218
825977,266,300,287
825993,284,294,266
826009,234,256,222
826024,252,250,220
826040,264,341,223
826056,275,294,211
826072,261,297,206
826088,271,332,229
826103,223,313,220
826119,238,291,205
826135,269,336,175
826151,264,286,218
826167,237,253,213
826183,265,274,192
826198,261,251,263
826214,256,326,232
826230,231,234,279
826246,257,269,276
826262,260,320,247
826277,250,294,243
826293,256,249,213
826309,238,281,232
826325,244,264,199
826341,297,269,262
826402,268,265,281
826412,227,297,280
826422,306,346,278
826432,274,311,244
826442,240,299,216
826500,256,283,212
826510,265,286,256
826520,233,242,208
826530,200,185,233
826541,228,260,211
826777,223,261,199
826787,198,210,223
826797,211,273,203
826807,221,278,238
826817,243,219,243
826827,241,278,246
826837,248,283,216
826847,220,292,204
826858,262,276,231
826868,216,296,245
826878,300,278,227
826888,264,274,241
826898,301,280,196
826908,321,337,249
826918,248,265,237
826928,272,273,261
826938,258,256,214
826948,271,226,263
826958,262,260,262
826968,227,293,241
826978,294,251,241
826988,266,288,258
826998,280,215,232
827008,249,226,214
827018,271,286,235
827028,245,239,204
827038,241,289,208
827048,322,290,268
827058,399,433,383
827068,485,510,446
827078,502,512,371
827088,503,515,496
827098,482,508,492
827108,508,513,509
827118,488,513,482
827129,492,507,467
827139,507,512,509
827149,506,514,505
827159,508,513,505
827170,503,512,509
827180,523,510,494
827190,505,502,462
827200,482,515,473
827210,484,507,498
827220,501,504,471
827231,511,498,484
827242,513,509,408
827258,411,495,326
827274,379,365,327
827290,376,492,322
827306,470,495,385
827322,480,509,408
827337,506,512,485
827353,514,513,488
827369,499,511,448
827385,488,511,468
827401,511,512,463
827416,510,507,438
827432,511,510,503
827448,501,512,466
827464,469,454,401
827480,312,372,339
827496,245,304,313
827511,247,323,245
827527,279,271,220
827543,259,283,210
827559,242,298,232
827575,228,264,262
827590,268,301,264
827606,222,302,235
827622,242,309,198
827638,280,258,238
827654,307,305,189
827670,289,281,226
827685,333,332,229
827701,398,406,328
827717,379,489,332
827733,374,513,374
827749,479,508,392
827764,436,507,470
827780,503,507,472
827796,511,515,498
827812,491,502,503
827828,486,509,493
827844,495,506,470
827859,369,499,454
827875,351,364,269
827891,285,310,278
827907,242,311,244
827923,204,215,227
827939,237,221,188
827954,232,215,216
827970,204,264,212
827986,234,276,206
828002,220,299,225
828018,187,298,238
828033,234,308,254
828049,239,260,281
828065,231,252,230
828081,250,204,251
828097,236,264,230
828113,213,292,223
828128,274,291,199
828144,288,286,215
828160,273,255,251
828176,276,304,217
828192,311,299,269
828207,262,259,243
828223,276,274,210
828239,274,303,230
828255,229,312,236
828271,201,270,218
828287,264,278,180
828302,264,260,243
828318,258,309,220
828334,288,294,229
828350,269,231,196
828366,276,298,183
828381,260,298,222
828397,246,324,217
828413,218,289,224
828429,244,196,259
828445,270,207,228
828461,266,251,222
828476,259,217,222
828492,298,249,200
828508,272,309,222
828524,309,280,234
828540,332,306,233
828555,288,256,191
828571,313,304,203
828587,287,286,218
828603,326,212,226
828619,258,234,250
828635,258,251,225
828650,176,207,201
828666,208,246,226
828682,197,210,232
828698,184,219,209
828714,241,231,194
828729,222,257,221
828745,214,221,232
828761,246,262,256
828777,252,275,245
828793,309,279,186
828809,243,284,207
828824,225,258,184
828840,335,290,262
828856,315,338,266
828872,291,292,253
828888,340,268,273
828903,329,343,242
828919,339,283,245
828935,283,218,261
828951,261,276,227
828967,297,284,216
828983,300,285,264
828998,298,289,236
829014,310,238,200
829030,311,251,232
829046,257,231,194
829062,283,209,227
829078,415,430,262
829093,500,503,434
829109,491,456,487
829125,510,497,500
829141,486,513,460
829157,509,510,437
829172,510,481,421
829188,505,513,448
829204,494,516,457
829220,433,457,427
829236,439,418,436
829252,371,283,264
829267,326,225,235
829283,262,280,251
829299,344,288,228
829346,267,260,270
829356,300,305,205
829366,273,245,214
829376,190,257,201
829386,192,239,196
829396,202,251,237
829410,214,244,231
829426,241,270,182
829441,191,228,204
829457,233,273,203
829473,222,244,198
829489,218,251,233
829505,257,220,238
829520,213,263,196
829536,275,228,233
829552,253,298,197
829568,288,276,219
829584,283,289,249
829600,291,311,256
829615,294,295,219
829683,254,289,245
829693,270,241,169
829703,208,279,197
829713,245,275,234
829724,271,247,210
830049,0,216
830059,222,239,222
830069,226,264,209
830079,210,268,204
830089,236,308,238
830100,235,248,249
830110,214,262,244
830121,198,252,225
830131,207,231,207
830142,242,231,236
830152,280,262,224
830164,260,262,233
830178,234,263,206
830188,269,318,186
830199,287,261,226
830209,285,273,210
830219,322,306,252
830229,302,308,197
830239,274,224,238
830249,247,448,268
830259,203,223,221
830269,191,210,227
830279,215,210,221
830289,268,200,159
830299,208,203,170
830309,175,241,171
830319,214,227,187
830329,222,258,187
830339,208,218,198
830349,229,269,208
830359,250,280,215
830369,239,281,170
830379,232,260,208
830389,230,285,273
830399,233,259,219
830409,239,279,224
830419,208,281,238
830429,234,320,198
830439,304,387,242
830449,292,315,288
830459,238,274,293
830469,273,286,201
830479,256,337,261
830489,277,278,219
830499,236,268,249
830509,211,221,219
830519,253,231,204
830529,190,252,221
830539,222,207,203
830549,225,233,228
830559,259,224,249
830569,385,376,391
830579,477,495,331
830589,455,459,336
830599,431,501,329
830612,501,510,470
830628,498,509,461
830644,511,508,477
830659,507,493,489
830675,504,517,506
830691,499,509,475
830707,478,509,486
830723,511,509,498
830739,505,508,505
830754,518,509,499
830770,516,510,508
830786,514,514,511
830802,499,507,391
830818,506,483,371
830833,487,471,314
830849,336,434,271
830865,258,281,221
830881,247,280,233
830897,251,317,193
830913,292,247,237
830928,258,312,178
830944,261,289,240
830960,320,322,221
830976,249,313,218
830992,232,314,233
831008,281,284,236
831023,202,288,212
831039,279,283,208
831055,284,307,241
831071,236,281,258
831087,244,277,198
831102,256,313,186
831118,245,221,209
831134,242,259,186
831150,240,404,201
831166,258,257,194
831182,247,269,179
831197,215,247,206
831213,224,288,211
831229,241,270,233
831245,245,233,198
831261,258,263,251
831276,203,253,220
831292,306,251,226
831308,207,251,272
831324,251,227,171
831340,232,230,175
831356,233,278,295
831371,225,297,208
831387,301,314,200
831403,277,280,229
831419,276,244,207
831435,298,258,208
831450,238,287,217
831466,354,281,226
831482,298,222,227
831498,261,247,212
831514,215,263,227
831530,208,222,234
831545,218,224,210
831561,180,238,180
831577,252,274,190
831593,191,247,191
831609,210,230,194
831624,212,200,247
831640,226,248,251
831656,225,231,215
831672,175,245,194
831688,203,221,212
831704,220,203,206
831719,263,235,261
831735,292,240,248
831751,264,241,265
831767,307,274,275
831783,345,265,227
831798,363,275,211
831814,239,223,188
831830,208,238,173
831846,218,214,182
831862,261,251,240
831878,265,229,213
831893,231,264,177
831909,250,221,168
831925,209,239,211
831941,268,263,179
831957,255,204,177
831972,245,243,168
831988,226,235,172
832004,251,259,250
832020,243,240,257
832036,262,252,189
832052,251,231,258
832067,220,251,219
832083,270,260,202
832099,232,257,196
832115,235,321,220
832131,281,300,194
832147,261,253,256
832162,282,250,227
832178,289,257,217
832194,252,325,230
832210,217,379,182
832226,245,269,198
832241,241,276,222
832257,259,273,258
832273,251,230,228
832289,218,221,251
832305,177,237,213
832321,190,234,204
832336,244,251,257
832352,280,264,218
832368,302,248,230
832384,293,309,271
832400,357,290,262
832415,307,282,232
832431,250,266,196
832447,341,308,217
832463,440,446,262
832479,491,477,408
832495,491,459,463
832510,453,382,303
832526,324,397,264
832542,286,323,226
832558,273,285,181
832574,264,251,193
832589,272,290,195
832605,310,329,227
832621,243,352,238
832637,287,254,208
832653,307,279,246
832669,266,217,259
832684,276,271,194
832780,330,341,272
832790,432,481,434
832800,440,470,494
832810,502,486,427
832882,482,508,459
832892,503,470,380
832902,483,500,334
832912,483,508,399
832922,501,487,419
832932,509,504,440
832942,506,504,462
832952,508,505,495
832962,508,500,487
832972,494,491,500
832982,505,501,465
832992,505,512,488
833002,488,508,452
833012,336,344,327
833022,232,334,250
833032,218,321,229
833042,197,206,198
833052,215,264,225
833062,218,234,217
833072,261,216,209
833082,282,244,201
833096,258,259,192
833111,239,273,208
833127,274,237,212
833143,263,234,217
833159,269,212,245
833175,271,297,271
834055,3
834066,197,257,207
834076,259,212,233
834087,231,258,197
834098,216,254,168
834109,219,192,201
834120,258,281,196
834131,275,242,214
834141,275,244,178
834151,238,230,229
834161,261,231,242
834171,274,251,258
834181,269,251,254
834191,280,279,256
834201,237,233,218
834211,341,261,227
834222,330,262,206
834233,277,245,256
834243,293,252,256
834253,308,213,195
834263,214,254,170
834273,299,274,216
834283,264,272,209
834293,343,293,288
834303,473,472,323
834313,506,494,441
834323,511,508,479
834333,470,500,506
834343,508,509,510
834353,513,507,499
834363,498,509,498
834373,509,514,511
834383,498,512,517
834393,493,511,476
834403,508,510,484
834413,502,511,453
834423,510,509,483
834433,510,511,504
834443,501,509,457
834453,501,510,465
834463,509,487,490
834473,508,506,500
834483,513,508,473
834493,474,515,496
834503,506,512,492
834513,511,514,481
834523,481,513,471
834533,505,514,497
834543,510,512,426
834553,495,513,458
834563,509,514,505
834573,512,511,506
834583,514,467,469
834593,513,505,502
834603,507,509,489
834614,501,511,501
834630,471,512,473
834646,501,512,506
834662,485,496,510
834678,501,509,484
834693,503,510,508
834709,509,511,510
834725,509,510,510
834741,488,512,493
834757,507,512,509
834773,514,512,494
834788,504,514,495
834804,511,511,435
834820,509,512,487
834836,507,506,491
834852,512,506,514
834867,503,506,446
834883,504,508,504
834899,509,495,509
834915,510,507,507
834931,512,510,506
834947,513,511,431
834962,512,512,477
834978,512,510,511
834994,507,511,504
835010,510,512,504
835026,517,512,510
835042,514,499,494
835057,512,509,517
835073,510,511,483
835089,512,511,460
835105,503,511,506
835121,507,512,510
835136,509,501,486
835152,511,505,482
835168,486,511,495
835184,482,501,513
835200,508,489,474
835216,466,437,376
835231,446,477,288
835247,347,342,222
835263,264,295,211
835279,241,275,250
835295,243,201,201
835311,204,257,238
835326,257,234,225
835342,261,253,196
835358,260,261,261
835374,232,253,249
835390,204,264,220
835405,240,248,218
835421,267,268,232
835437,222,270,183
835453,268,273,205
835469,248,240,189
835485,306,284,240
835500,254,224,230
835516,208,277,256
835532,232,264,232
835548,204,259,263
835564,251,241,241
835579,253,216,230
835595,243,302,236
835611,248,262,185
835627,235,288,197
835643,190,204,182
835659,202,230,204
835674,234,239,225
835690,268,216,182
835706,198,236,214
835722,218,255,216
835738,196,218,233
835753,234,204,222
835769,234,223,197
835785,228,220,197
835801,254,251,211
835817,256,267,187
835833,249,226,204
835848,206,221,219
835864,248,245,205
835880,243,239,203
835896,222,248,244
835912,251,274,230
835927,306,230,235
835943,213,251,178
835959,244,224,266
835975,268,229,225
835991,241,211,233
836007,249,213,225
836022,240,183,193
836038,189,290,261
836054,169,249,225
836070,195,210,237
836086,244,192,201
836101,190,234,215
836117,239,236,235
836133,186,229,228
836149,239,178,208
836165,210,245,210
836181,206,252,219
836196,206,249,211
836212,217,238,218
836228,227,260,214
836244,211,231,223
836260,197,651,212
836276,207,170,244
836291,254,216,210
836307,177,266,238
836323,208,269,236
836339,231,256,201
836355,232,265,254
836370,192,200,198
836386,191,247,235
836402,205,204,217
836418,219,247,223
836434,198,243,248
836450,180,240,248
836465,228,208,246
836481,196,185,217
836497,257,250,228
836513,226,285,218
836529,199,240,256
836544,214,265,260
836560,232,235,200
836576,206,220,228
836665,235,255,228
836675,236,228,208
836685,231,220,242
836695,204,273,198
836705,234,251,246
836774,202,211,232
836785,244,234,216
836795,232,235,234
836805,169,199,251
836815,162,233,218
836825,219,240,272
836835,181,233,231
836845,203,249,225
836855,217,213,221
836865,235,233,223
836875,230,224,247
836885,194,254,203
836895,209,240,217
836979,209,226,218
836989,201,204,206
836999,208,238,206
837009,225,207,234
837019,205,246,227
837029,217,274,232
837039,230,217,250
837049,208,252,229
837059,260,271,224
837069,254,227,249
837079,261,259,247
837089,223,229,230
837099,201,213,212
837109,203,216,213
837119,191,240,211
837129,241,233,207
837139,170,247,203
837149,204,244,204
837161,258,276,222
837177,187,205,214
837193,219,233,248
837209,298,255,249
837225,214,206,233
837240,252,238,243
837256,234,241,239
837272,219,230,232
837288,219,235,243
837304,252,247,218
837320,205,211,243
837335,230,159,236
837351,225,162,229
837367,217,220,280
837383,213,250,214
837399,237,263,221
837414,216,220,221
837430,207,225,275
837446,237,176,241
837462,233,243,248
837478,260,207,225
837494,325,240,220
837509,387,411,359
837525,453,499,419
837541,459,510,470
837557,495,512,447
837573,471,512,488
837589,508,511,473
837604,513,512,485
837620,509,511,488
837636,511,511,508
837652,506,512,475
837668,490,496,462
837683,509,467,494
837699,508,506,501
837715,479,511,496
837731,507,511,493
837747,510,511,517
837762,511,511,481
837778,511,512,487
837794,485,489,473
837810,507,509,497
837826,510,509,486
837842,508,511,468
837857,484,483,498
837873,502,507,457
837889,510,495,477
837905,495,510,463
837921,509,510,483
837937,512,498,491
837952,510,509,465
837968,498,512,471
837984,510,512,484
838000,512,511,486
838016,513,422,494
838031,450,502,487
838047,504,506,508
838063,497,511,476
838079,489,511,466
838095,507,490,503
838111,500,492,501
838126,510,505,502
838142,514,510,494
838158,511,511,497
838174,508,514,510
838190,504,513,504
838205,514,511,501
838221,516,511,506
838237,511,512,464
838253,494,493,413
838269,321,337,283
838285,225,276,261
838300,246,265,243
838316,245,257,259
838332,241,230,266
838348,283,263,268
838364,226,277,243
838379,210,265,258
838395,230,218,260
838411,246,281,249
838427,241,297,267
838443,230,274,300
838459,283,289,265
838474,252,243,238
838490,249,221,248
838506,236,262,216
838522,230,205,235
838538,265,139,240
838553,237,260,257
838569,240,234,294
838585,251,246,259
838601,251,222,256
838617,237,223,235
838633,223,256,214
838648,255,229,243
838664,316,218,248
838680,339,272,274
838696,419,425,372
838712,417,496,440
838727,503,484,365
838743,450,484,406
838759,494,472,379
838775,508,504,366
838791,507,495,479
838807,507,511,457
838822,496,509,460
838838,491,510,426
838854,500,506,452
838870,495,516,406
838886,510,509,404
838901,502,513,404
838917,503,452,472
838933,465,468,448
838949,508,492,498
838965,493,510,510
838981,490,510,469
838996,502,492,482
839012,510,485,441
839028,482,491,440
839044,480,509,448
839060,494,509,479
839075,512,511,482
839091,510,507,494
839107,510,506,503
839123,499,505,467
839139,510,491,466
839155,511,512,505
839170,491,510,497
839186,508,511,481
839202,512,511,484
839218,512,511,483
839234,484,513,509
839249,504,497,509
839265,510,509,512
839281,511,505,497
839297,511,510,509
839313,496,511,511
839329,499,511,510
839344,505,511,519
839360,510,512,508
839376,512,512,503
839392,512,512,487
839408,512,511,496
839423,513,511,507
839439,496,514,512
839455,499,512,478
839471,509,512,508
839487,509,502,517
839503,505,510,507
839518,510,510,510
839534,512,512,505
839550,513,512,468
839566,495,513,503
839582,508,512,487
839598,513,499,507
839613,512,509,517
839629,509,509,501
839645,511,513,498
839661,513,512,515
839677,512,514,505
839692,513,513,476
839708,513,512,494
839724,514,513,498
839740,511,510,507
839756,519,512,469
839772,497,509,483
839787,509,504,508
839803,497,513,498
839819,528,507,511
839835,504,500,465
839851,509,513,497
839867,483,510,468
839882,502,514,483
839898,513,514,508
839914,506,511,504
839930,481,512,475
839946,500,512,484
839961,396,510,356
839977,309,323,274
839993,256,276,271
840009,264,262,262
840025,248,222,252
840041,256,264,242
840056,297,236,235
840072,297,271,233
840088,280,256,293
840104,295,288,279
840120,309,253,305
840136,326,212,276
840151,324,232,277
840167,333,207,261
840183,311,250,271
840199,265,302,289
840215,356,286,283
840230,334,326,332
840246,334,253,291
840262,297,223,268
840278,298,249,317
840294,316,259,285
840310,392,444,346
840325,492,501,470
840341,509,512,486
840357,494,513,503
840373,489,500,500
840389,510,510,505
840404,514,513,509
840420,512,508,515
840436,496,509,514
840452,503,505,504
840506,510,475,511
840516,505,463,499
840526,506,505,514
840536,510,477,507
840546,517,508,497
840556,507,479,504
840566,512,508,510
840625,511,511,512
840635,515,488,507
840645,492,513,481
840655,517,510,505
840665,508,510,500
840675,473,511,510
840685,496,511,487
840695,509,505,498
840705,500,510,485
840838,506,512,508
840849,505,510,511
840859,511,498,484
840869,509,508,509
840882,512,510,510
840892,513,511,489
840903,513,508,457
840913,512,467,506
840923,511,506,506
840933,486,510,499
840943,509,511,500
840953,510,510,507
840963,477,513,507
840973,507,510,500
840983,507,494,478
840993,520,508,492
841003,510,511,493
841013,513,511,497
841023,515,513,500
841033,487,508,503
841043,503,511,510
841053,513,479,512
841069,510,508,479
841085,509,511,494
841101,506,506,508
841116,513,485,502
841132,505,507,487
841148,511,511,509
841164,510,512,501
841180,514,512,478
841195,514,511,480
841211,512,512,495
841227,505,491,491
841243,507,508,510
841259,509,511,513
841275,510,512,483
841290,485,501,494
841306,483,475,430
841322,337,364,387
841338,305,282,361
841354,273,269,330
841370,264,269,264
841385,259,226,258
841401,284,485,303
841417,222,218,304
841433,253,296,289
841449,236,235,309
841464,241,200,293
841480,220,231,301
841496,255,225,308
841512,201,197,279
841528,236,211,263
841544,173,204,245
841559,216,204,259
841575,243,214,280
841591,278,235,314
841607,245,171,270
841623,256,256,270
841638,202,176,283
841654,220,232,236
841670,213,172,240
841686,242,238,269
841702,215,267,260
841718,222,208,247
841733,209,222,259
841749,236,173,274
841765,222,187,249
841781,210,238,248
841797,243,199,268
841812,196,217,268
841828,219,280,261
841844,256,195,283
841860,288,200,260
841876,236,205,252
841892,237,203,229
841907,273,263,236
841923,310,238,288
841939,330,375,426
841955,425,461,407
841971,482,505,488
841986,476,509,490
842002,474,514,509
842018,498,511,509
842034,510,486,513
842050,510,506,501
842066,514,510,484
842081,512,506,500
842097,503,510,507
842113,477,510,497
842129,458,509,507
842145,456,509,510
842161,499,512,506
842176,499,501,511
842192,506,519,491
842208,512,504,500
842224,508,529,495
842240,511,506,497
842255,512,501,501
842271,502,511,480
842287,510,520,507
842303,496,507,510
842319,509,510,507
842335,504,510,510
842350,511,515,507
842366,511,505,509
842382,516,516,470
842398,504,512,478
842414,504,505,508
842430,496,506,509
842445,510,509,493
842461,511,510,509
842477,511,512,510
842493,513,487,513
842509,513,507,512
842524,506,497,515
842540,486,510,506
842556,508,512,494
842572,511,512,506
842588,511,510,506
842604,512,490,512
842619,511,509,476
842635,496,510,497
842651,510,511,507
842667,490,512,484
842683,509,512,502
842698,510,459,486
842714,498,506,491
842730,509,466,493
842746,477,501,497
842762,507,511,509
842778,511,500,514
842793,512,510,500
842809,512,510,493
842825,506,510,510
842841,511,510,507
842857,513,512,479
842873,507,511,510
842888,506,512,501
842904,511,512,500
842920,484,506,490
842936,509,497,506
842952,511,509,493
842967,490,467,503
842983,497,465,512
842999,483,493,499
843015,508,509,504
843031,509,512,510
843047,509,510,488
843062,511,511,501
843078,510,495,492
843094,465,510,507
843110,498,512,476
843126,506,511,508
843142,505,513,471
843157,511,500,457
843173,510,508,490
843189,503,459,498
843205,510,504,478
843221,506,510,476
843236,485,499,474
843252,508,509,501
843268,510,511,511
843284,505,511,514
843300,510,512,476
843316,513,479,496
843331,491,505,477
843347,503,506,503
843770,,511,502
843780,0,507
843790,512,510,510
843800,507,513,475
843810,511,512,500
843820,513,511,510
843831,512,512,496
843841,512,513,496
843967,,501
843977,1
843987,512,497,504
843997,507,510,504
844007,512,458,505
844017,514,493,502
844027,513,446,509
844037,512,504,500
844047,509,507,505
844057,510,511,510
844067,498,511,511
844077,510,512,461
844088,494,510,506
844098,508,510,495
844186,506,492
844196,474,509,499
844207,475,512,494
844217,505,512,477
844227,502,513,430
844237,484,513,395
844247,493,502,363
844257,464,444,433
844267,365,298,334
844277,350,263,344
844287,367,300,328
844297,411,287,307
844307,318,243,269
844317,296,228,360
844327,341,241,321
844337,305,272,309
844347,265,312,300
844357,304,271,310
844367,306,247,283
844377,391,298,288
844387,372,293,331
844397,309,185,260
844407,301,474,295
844417,263,205,285
844427,283,243,301
844437,306,346,285
844447,329,215,237
844457,331,238,295
844467,279,277,249
844477,268,203,245
844487,244,406,256
844497,296,262,259
844507,229,177,256
844517,291,239,251
844527,248,259,278
844537,274,250,264
844547,277,284,300
844557,309,260,303
844567,263,275,239
844578,292,216,295
844588,289,232,236
844598,222,214,269
844608,262,217,254
844618,241,226,249
844628,253,199,243
844638,233,262,260
844648,243,256,286
844658,259,237,263
844668,307,245,249
844678,251,362,241
844688,269,275,550
844698,244,178,254
844708,254,237,289
844724,251,263,248
844739,268,220,271
844755,296,230,239
844771,308,273,278
844787,302,297,326
844803,343,292,293
844818,301,362,386
844834,279,235,297
844850,300,324,385
844866,326,291,341
844882,346,287,263
844898,368,264,241
844913,369,244,299
844929,320,237,272
844945,309,279,257
844961,245,286,229
844977,243,245,267
844993,270,234,239
845008,242,227,263
845024,243,238,248
845040,344,261,264
845056,312,219,233
845072,279,265,284
845087,322,300,240
845103,303,291,272
845119,252,277,249
845135,259,245,264
845151,227,225,259
845167,277,206,271
845182,267,251,252
845198,317,248,251
845214,273,263,232
845230,243,256,303
845246,272,235,262
845261,305,222,282
845277,257,284,300
845293,315,251,292
845309,275,206,275
845325,225,244,269
845341,234,233,286
845356,335,237,276
845372,317,227,248
845388,266,211,264
845404,273,224,250
845420,257,225,280
845435,243,203,286
845451,238,240,274
845467,241,217,254
845483,227,223,250
845499,220,222,263
845515,229,221,252
845530,239,255,292
845546,277,238,231
845562,297,270,290
845578,301,265,264
845594,219,245,333
845609,246,278,302
845625,273,293,260
845641,295,269,265
845657,326,263,267
845673,284,234,252
845689,282,290,309
845704,262,274,271
845720,311,253,267
845736,262,474,271
845752,281,291,245
845768,247,286,285
845783,283,320,277
845799,264,306,277
845815,246,319,245
845831,283,322,342
845847,359,426,313
845863,452,502,382
845878,486,511,435
845894,511,512,466
845910,503,512,493
845926,508,511,407
845942,513,510,431
845957,483,508,454
845973,493,511,458
845989,491,511,492
846005,495,511,456
846021,474,476,471
846037,488,507,387
846052,508,512,393
846068,510,508,386
846084,487,511,462
846100,439,505,472
846116,442,505,400
846131,453,481,368
846147,478,483,331
846163,376,349,353
846179,302,328,259
846195,289,269,300
846211,237,288,264
846226,248,287,217
846242,267,243,275
846258,220,257,288
846274,224,248,288
846290,184,209,264
846306,335,201,289
846321,218,252,231
846337,270,221,207
846353,245,244,235
846369,203,225,236
846385,150,227,232
846400,210,265,275
846416,212,220,247
846432,246,241,215
846448,206,273,219
846464,225,235,269
846480,187,421,238
846495,202,242,218
846511,232,220,243
846527,236,263,237
846543,232,279,238
846559,216,203,271
846574,231,239,267
846590,248,220,265
846606,203,231,248
846622,208,273,218
846638,232,233,247
846654,273,273,240
846669,243,290,224
846685,256,291,252
846701,309,361,284
846717,259,413,292
846733,268,423,388
846748,383,485,360
846764,376,419,452
846780,401,481,374
846796,416,499,339
846812,439,510,405
846828,489,512,352
846843,491,494,459
846859,507,462,403
846875,486,507,478
846891,508,511,492
846907,501,498,447
846922,444,513,413
846938,503,509,452
846987,495,479,366
846997,510,453,462
847007,486,502,407
847017,493,493,456
847027,504,510,438
847037,484,514,405
847049,504,515,394
847065,510,481,476
847081,493,505,497
847142,506,523,491
847152,502,510,434
847163,509,530,457
847173,431,484,452
847183,501,493,428
847194,509,513,478
847205,504,510,508
847215,512,513,501
847225,500,418,451
847239,509,501,414
847255,489,516,469
847621,,528
847631,1
847641,498,513,505
847651,508,494,484
847661,510,509,519
847672,499,509,495
847682,505,498,499
847692,510,513,477
847702,510,516,501
847712,515,516,459
847722,512,522,477
847732,514,522,472
847742,514,486,486
847752,518,509,509
847762,473,529,496
847772,508,496,495
847782,508,510,491
847792,511,525,486
847802,503,507,503
847812,504,511,517
847822,498,479,488
847832,510,506,481
847842,473,509,510
847852,503,507,487
847862,468,511,502
847872,500,510,494
847882,510,513,499
847892,512,514,459
847902,496,498,500
847912,486,510,511
847922,508,521,499
847932,509,510,478
847942,505,510,472
847952,504,507,496
847962,508,513,498
847972,507,510,526
847982,511,512,508
847992,512,513,477
848002,513,512,491
848012,513,513,515
848022,512,512,510
848032,514,507,478
848042,498,513,458
848052,509,512,497
848062,506,511,494
848072,483,517,502
848082,494,512,512
848092,501,501,484
848104,510,510,498
848114,473,522,488
848125,507,513,509
848135,509,512,500
848145,510,512,509
848155,513,515,512
848166,513,514,461
848176,473,513,435
848188,350,427,466
848204,395,503,405
848220,303,331,372
848236,256,309,303
848251,262,301,268
848267,202,327,273
848283,221,357,261
848299,200,311,243
848315,211,302,216
848331,259,295,257
848346,230,298,267
848362,210,328,250
848378,221,249,283
848394,211,206,245
848410,203,287,272
848426,159,249,251
848441,171,302,268
848457,198,269,253
848473,227,291,204
848489,270,305,238
848505,189,299,249
848520,246,310,265
848536,233,292,259
848552,227,298,300
848568,285,325,280
848584,225,265,218
848599,283,250,274
848615,203,250,256
848631,182,246,273
848647,182,322,245
848663,216,291,250
848679,282,229,242
848694,264,272,279
848710,181,284,253
848726,228,297,239
848742,316,313,277
848758,278,340,260
848773,308,383,378
848789,347,490,378
848805,372,506,419
848821,353,482,359
848837,372,504,289
848853,423,472,324
848868,353,459,352
848884,416,415,381
848900,411,479,344
848916,425,505,374
848932,457,503,371
848948,499,506,378
848963,487,506,328
848979,489,513,390
848995,471,509,453
849011,501,512,463
849027,430,510,436
849042,501,510,485
849058,499,482,430
849074,511,453,462
849090,505,503,422
849106,509,487,437
849122,494,509,455
849137,503,505,450
849153,462,510,445
849169,495,509,478
849185,508,498,505
849201,510,509,487
849216,471,479,464
849232,498,508,454
849248,508,513,468
849264,510,519,386
849280,503,513,424
849296,450,513,392
849311,442,501,423
849327,439,492,447
849343,421,492,468
849359,367,504,434
849375,421,511,433
849390,325,396,405
849406,404,362,406
849422,270,357,331
849438,242,395,332
849454,267,330,332
849470,243,291,293
849485,204,302,307
849501,270,319,293
849517,241,303,229
849533,210,253,246
849549,216,239,217
849564,222,247,244
849580,240,289,213
849596,168,266,260
849612,240,273,267
849628,206,259,235
849644,218,285,266
849659,228,275,267
849675,245,277,242
849691,187,256,232
849707,204,255,244
849723,202,253,274
849738,250,264,288
849754,194,272,256
849770,221,214,208
849786,186,269,259
849802,153,228,234
849818,217,254,244
849833,152,313,238
849849,142,256,265
849865,207,278,252
849881,230,266,243
849897,191,282,254
849912,217,268,254
849928,243,289,267
849944,187,265,225
849960,197,215,269
849976,236,178,269
849992,171,237,241
850007,213,288,223
850023,238,253,232
850039,254,190,239
850055,212,304,298
850071,261,247,315
850086,298,294,347
850102,396,380,368
850118,408,491,452
850153,487,476,399
850163,473,506,428
850175,489,513,391
850185,493,510,364
850197,481,487,331
850213,427,507,421
850252,458,512,416
850262,496,489,467
850272,444,509,377
850282,401,499,462
850292,438,437,393
850308,495,506,467
850403,512,510,377
850413,469,480,430
850423,387,508,312
850435,413,439,325
850445,360,481,315
850456,355,506,302
850466,357,477,354
850476,416,499,365
850487,408,511,334
850497,448,505,383
850507,460,510,340
850517,506,499,437
850527,421,511,442
850537,463,516,466
850547,513,503,478
850561,485,498,423
850577,435,510,474
850593,500,484,452
850609,510,504,474
850624,506,513,449
850640,484,503,483
850656,508,511,491
850672,502,510,472
850688,511,524,488
850704,513,495,513
850719,503,511,485
850735,506,510,486
850751,501,513,486
850767,508,500,463
850783,512,500,456
850798,514,481,505
850814,510,519,487
850830,495,508,504
850846,498,511,462
850862,456,481,485
850878,504,512,472
850893,496,512,491
850909,510,511,497
850925,505,508,500
850941,498,512,511
850957,508,511,478
850972,468,512,473
850988,493,512,489
851004,511,490,470
851020,474,508,507
851036,513,510,489
851052,516,511,500
851067,515,512,505
851083,499,512,473
851099,492,510,426
851115,495,512,488
851131,467,513,454
851146,478,490,466
851162,505,507,467
851178,498,475,393
851194,388,428,399
851210,372,434,280
851226,302,326,240
851241,238,267,240
851257,222,288,220
851273,284,316,273
851289,215,248,194
851305,201,243,218
851321,218,259,265
851336,178,235,204
851352,175,229,243
851368,233,248,198
851384,172,244,277
851400,195,231,218
851415,240,211,248
851431,221,287,214
851447,192,277,271
851463,196,237,233
851479,231,204,219
851495,232,205,220
851510,199,217,250
851526,239,238,232
851542,181,227,271
851558,158,259,248
851574,193,244,233
851589,220,281,210
851605,176,256,190
851621,158,248,213
851637,217,232,215
851653,207,241,180
851669,222,257,263
851684,207,204,224
851700,235,283,221
851716,177,285,207
851732,203,233,222
851748,145,225,270
851763,191,246,239
851779,188,262,246
851795,193,237,226
851811,194,282,219
851827,178,240,222
851843,198,222,265
851858,268,252,231
851874,234,254,202
851890,191,302,222
851906,204,307,211
851922,195,331,241
851937,219,277,239
851953,181,284,252
851969,222,313,228
851985,266,326,312
852001,265,266,301
852017,318,314,245
852032,283,298,235
852048,275,278,258
852064,240,311,237
852080,278,341,268
852096,367,475,308
852111,376,506,431
852127,418,511,473
852143,494,511,482
852159,499,511,500
852175,509,490,503
852191,501,507,433
852206,504,507,431
852222,504,507,421
852238,477,490,435
852254,484,510,475
852270,498,510,472
852285,511,509,466
852301,507,512,475
852317,482,512,456
852333,497,505,486
852349,498,509,484
852365,505,506,401
852380,457,475,479
852396,475,503,437
852412,507,457,391
852428,405,495,382
852444,497,511,365
852459,510,511,358
852475,456,511,398
852491,492,511,367
852507,494,511,336
852523,441,511,396
852539,436,512,376
852554,466,512,386
852570,506,512,431
852586,511,510,462
852602,493,511,466
852618,509,512,495
852634,493,513,466
852649,510,513,468
852665,511,512,482
852681,513,512,480
852697,512,512,485
852713,505,513,439
852728,495,511,493
852744,476,507,486
852760,501,512,500
852776,509,512,505
852792,512,512,455
852808,513,512,485
852823,498,513,501
852839,430,511,483
852855,484,512,499
852889,499,512,497
852899,500,512,509
852909,488,512,510
852919,447,512,511
852934,464,512,511
852950,507,516,466
853134,512,512,500
853144,492,512,454
853154,393,512,472
853164,481,513,505
853175,485,512,504
853185,491,512,503
853195,498,498,483
853205,475,510,431
853215,405,509,369
853225,350,390,446
853235,289,321,328
853246,308,341,215
853257,225,321,234
853268,250,293,219
853278,221,300,222
853325,172,246,213
853335,190,285,148
853345,242,293,222
853355,211,262,197
853365,189,256,191
853375,255,265,249
853385,188,245,201
853396,232,260,191
853406,187,266,238
853416,241,259,234
853426,216,245,177
853437,204,247,202
853447,171,285,256
853458,190,247,189
853468,180,258,233
853478,206,293,208
853488,219,236,173
853498,188,224,195
853508,206,239,230
853518,203,268,275
853528,220,279,164
853538,193,228,194
853551,225,210,214
853567,213,252,266
853583,205,205,191
853599,152,248,202
853614,191,258,224
853630,260,262,203
853646,242,249,191
853662,185,219,216
853678,166,281,193
853693,267,230,183
853709,265,229,218
853725,211,280,203
853741,223,283,183
853757,219,289,191
853773,225,247,180
853788,234,262,234
853804,193,243,223
853820,203,292,192
853836,364,431,249
853852,391,453,365
853867,459,502,455
853883,456,474,454
853899,493,498,402
853915,502,475,436
853931,498,485,370
853947,503,508,439
853962,504,494,396
853978,469,509,355
853994,419,513,396
854010,492,478,336
854026,448,461,359
854042,434,506,363
854057,470,452,284
854073,432,505,382
854089,424,511,404
854105,474,508,460
854121,447,489,435
854136,395,511,466
854152,489,512,408
854168,505,506,376
854184,511,510,432
854200,483,503,416
854216,487,510,377
854231,499,511,337
854247,463,497,356
854263,392,509,327
854279,425,511,326
854295,471,511,286
854310,463,454,350
854326,452,505,268
854342,483,509,364
854358,471,509,310
854374,429,510,350
854390,420,478,308
854405,380,497,317
854421,328,488,255
854437,299,399,232
854453,241,378,239
854469,183,358,220
854484,212,316,233
854500,227,230,180
854516,235,273,217
854532,237,260,185
854548,235,250,122
854564,226,218,192
854579,246,335,191
854595,214,278,202
854611,237,238,145
854627,196,271,195
854643,216,242,229
854659,235,221,222
854674,220,221,215
854690,201,223,261
854706,255,274,153
854722,195,239,173
854738,199,238,179
854753,186,309,154
854769,229,207,170
854785,228,256,178
854801,148,261,168
854817,169,280,197
854833,229,299,190
854848,153,229,160
854864,177,307,150
854880,221,332,210
854896,298,238,193
854912,206,272,175
854927,243,258,207
854943,171,258,209
854959,190,232,186
854975,182,255,200
854991,203,262,151
855007,228,288,175
855022,245,263,243
855038,214,279,237
855054,214,290,209
855070,207,318,192
855086,169,290,209
855101,235,256,235
855117,207,269,185
855133,169,270,213
855149,222,225,178
855165,188,260,207
855181,226,285,220
855196,227,238,198
855212,222,266,214
855228,240,253,214
855244,244,215,242
855260,238,261,194
855275,263,269,191
855291,238,264,166
855307,245,218,163
855323,227,316,217
855339,229,341,212
855355,251,333,254
855370,319,307,214
855386,479,487,406
855402,508,503,440
855418,503,487,479
855434,500,512,488
855449,511,510,468
855465,472,512,446
855481,465,517,475
855497,504,508,437
855513,481,510,417
855529,466,512,409
855544,498,507,379
855560,509,511,424
855576,496,480,426
855592,501,508,413
855608,459,485,483
855624,461,509,417
855639,497,508,473
855655,471,481,409
855671,495,472,454
855687,502,505,409
855703,490,479,459
855718,416,485,376
855734,408,458,358
855750,469,505,396
855766,445,497,366
855782,409,510,353
855798,457,476,396
855813,418,507,345
855829,429,508,397
855881,492,511,329
855891,446,494,354
855902,448,458,301
855912,495,497,388
855922,451,512,350
855932,455,512,435
855959,479,468,466
855969,503,506,413
855979,506,511,409
855989,478,419,411
856003,488,496,395
856019,466,436,366
856071,486,497,376
856081,477,510,390
856091,482,511,403
856102,466,456,369
856113,494,500,380
856123,455,510,411
856133,503,512,305
856146,506,511,411
856161,511,511,439
856177,509,509,474
856193,488,510,475
856209,504,500,467
856225,508,499,479
856241,509,509,490
856256,479,511,479
856272,487,512,442
856288,498,513,383
856304,483,513,398
856320,502,512,401
856335,499,512,375
856351,494,495,396
856367,450,477,258
856383,303,434,314
856399,254,347,251
856415,188,245,164
856430,176,247,198
856446,212,270,199
856462,238,266,172
856478,230,272,188
856494,215,215,224
856509,190,231,197
856525,222,307,193
856541,262,196,185
856557,204,231,197
856573,190,232,190
856589,219,262,239
856604,215,213,169
856620,224,258,172
856636,208,244,205
856652,190,281,169
856668,228,282,212
856683,222,250,173
856699,222,260,172
856715,224,251,214
856731,184,244,191
856747,217,237,215
856763,228,218,190
856778,217,257,184
856794,167,255,193
856810,193,257,234
856826,214,213,220
856842,206,244,213
856857,250,243,173
856873,233,190,167
856889,197,264,177
856905,229,242,195
856921,173,232,173
856937,252,249,205
856952,214,216,185
856968,160,218,178
856984,231,250,225
857000,221,226,208
857016,226,270,201
857031,223,291,201
857047,210,238,216
857063,207,256,203
857079,212,242,187
857095,209,224,212
857111,141,280,185
857126,249,282,178
857142,227,262,213
857158,197,229,211
857174,242,239,209
857190,187,268,207
857205,217,231,215
857221,206,262,724
857237,177,287,177
857253,200,216,195
857269,242,263,227
857285,209,271,227
857300,235,331,317
857316,306,400,344
857332,383,497,312
857348,439,511,360
857364,478,513,374
857379,503,472,414
857395,482,468,405
857411,458,503,383
857427,474,511,401
857443,497,507,399
857459,499,512,394
857474,496,509,424
857490,490,499,467
857506,400,511,489
857522,455,510,460
857538,505,511,477
857554,500,488,436
857569,511,510,440
857585,494,512,490
857601,510,503,440
857617,489,509,414
857633,499,507,481
857648,476,510,420
857664,429,482,456
857680,477,505,418
857696,507,511,446
857712,511,510,486
857728,505,510,507
857743,504,512,441
857759,483,512,434
857775,509,512,459
857791,471,512,472
857807,488,495,472
857822,505,498,440
857838,511,510,461
857854,488,510,501
857870,487,512,523
857886,496,495,489
857902,509,509,444
857917,469,511,497
857933,505,510,471
857949,507,512,494
857965,511,490,491
857981,501,507,489
857996,476,512,436
858012,426,513,320
858028,301,331,301
858044,175,241,227
858060,244,293,199
858076,279,300,176
858091,266,200,190
858107,266,230,175
858123,190,255,252
858139,201,260,208
858155,196,279,243
858170,187,313,185
858186,185,229,160
858202,228,207,202
858218,207,234,211
858234,183,244,186
858250,210,261,203
858265,238,242,192
858281,238,244,214
858297,199,254,233
858313,219,252,175
858329,187,248,164
858344,268,276,265
858360,212,222,221
858376,160,266,201
858392,227,228,219
858408,202,235,196
858424,187,233,173
858439,189,166,217
858455,179,249,243
858471,180,235,212
858487,166,188,199
858503,185,225,167
858518,163,249,212
858534,136,238,224
858550,138,276,210
858566,208,263,216
858582,176,272,170
858598,192,236,196
858613,206,208,227
858629,227,253,225
858645,200,225,193
858661,235,226,217
858677,149,247,154
858692,190,341,141
858708,182,216,216
858724,230,304,192
858740,204,267,232
858756,156,283,248
858772,224,254,215
858787,202,188,221
858803,204,228,223
858819,215,234,199
858835,216,247,222
858851,199,216,235
858867,194,251,135
858882,167,217,629
858898,206,241,165
858914,192,282,195
858964,231,265,225
858974,184,273,226
858984,245,262,198
858994,244,282,706
859004,379,343,212
859014,377,462,294
859025,377,506,464
859041,462,488,438
859056,505,509,437
859072,505,509,465
859088,468,512,496
859104,504,513,514
859120,510,511,443
859135,506,510,505
859192,508,511,480
859202,507,510,448
859213,510,515,429
859224,509,515,439
859234,501,514,430
859244,475,511,434
859254,472,510,496
859264,507,511,510
859278,507,512,487
859294,507,511,493
859372,510,512,509
859383,480,509,477
859394,467,512,453
859404,506,509,505
859414,483,512,481
859424,478,512,412
859434,508,512,448
859444,505,512,479
859454,506,512,448
859464,511,510,506
859474,477,512,430
859484,470,512,481
859499,507,512,431
859515,509,511,477
859531,511,512,484
859547,507,511,492
859563,483,513,481
859578,505,511,452
859594,510,511,427
859610,501,513,424
859626,502,465,494
859642,482,505,481
859658,496,510,498
859673,490,510,457
859689,509,512,484
859705,510,512,439
859721,512,509,423
859737,483,511,468
859753,484,499,469
859768,479,510,477
859784,508,512,478
859800,507,512,482
859816,512,512,474
859832,511,512,405
859847,487,512,399
859863,509,481,365
859879,493,488,421
859895,487,509,339
859911,328,426,320
859926,322,268,216
859942,247,283,250
859958,205,245,216
859974,200,236,203
859990,173,274,264
860006,207,326,231
860021,260,276,227
860037,257,253,223
860053,274,280,183
860069,250,237,218
860085,223,251,206
860100,175,248,233
860116,222,301,228
860132,233,267,251
860148,170,285,187
860164,204,259,229
860180,187,210,240
860195,195,215,192
860211,216,246,214
860227,196,291,217
860243,207,303,231
860259,207,236,223
860274,173,201,200
860290,230,212,182
860306,187,254,203
860322,213,281,226
860338,191,249,182
860354,236,226,217
860369,185,195,214
860385,233,271,207
860401,188,246,181
860417,168,253,214
860433,157,220,238
860449,190,287,205
860464,191,239,205
860480,200,246,208
860496,246,227,264
860512,216,234,208
860528,178,260,203
860543,227,234,205
860559,229,217,173
860575,189,259,242
860591,144,238,225
860607,191,223,229
860623,179,197,174
860638,140,200,256
860654,141,213,198
860670,258,213,209
860686,220,231,214
860702,189,205,173
860717,183,212,274
860733,213,219,208
860749,212,234,206
860765,204,203,173
860781,201,239,209
860797,228,252,229
860812,176,213,175
860828,228,246,209
860844,265,205,221
860860,234,217,212
860876,241,227,230
860891,278,266,249
860907,286,368,250
860923,307,291,250
860939,380,411,308
860955,419,496,319
860971,492,511,346
860986,494,511,418
861002,501,502,446
861018,518,511,458
861034,509,512,432
861050,490,512,472
861065,508,504,486
861081,506,510,473
861097,511,511,486
861113,510,510,460
861129,502,503,507
861145,496,511,512
861160,486,450,495
861176,486,503,510
861192,500,510,464
861208,481,488,491
861224,505,509,472
861240,502,511,452
861255,506,512,500
861271,501,511,470
861287,493,512,502
861303,498,493,486
861319,485,509,501
861334,509,512,469
861350,513,512,478
861366,509,507,452
861382,507,512,490
861398,511,512,445
861414,481,513,492
861429,508,502,498
861445,512,490,503
861461,512,508,490
861477,510,511,510
861493,495,505,496
861508,499,507,460
861524,473,512,469
861540,507,511,503
861556,509,513,478
861572,511,512,482
861588,511,512,459
861603,468,508,476
861619,386,481,448
861635,328,504,363
861651,322,370,277
861667,254,312,256
861683,212,283,201
861698,319,273,185
861714,207,221,212
861730,213,254,224
861746,160,244,212
861762,142,291,236
861777,166,242,243
861793,185,189,202
861809,239,202,218
861825,192,254,236
861841,235,219,231
861857,208,218,194
861872,198,276,213
861888,257,226,215
861904,279,249,256
861920,201,234,226
861936,204,226,263
861952,188,247,247
861967,196,265,204
861983,207,231,228
861999,203,257,213
862015,211,253,223
862031,227,208,199
862046,210,239,211
862062,193,230,182
862078,217,243,206
862094,215,277,220
862110,194,253,209
862126,167,246,229
862141,259,259,223
862157,240,292,227
862173,162,207,241
862245,285,201,258
862255,214,223,222
862265,204,180,190
862275,226,177,261
862285,206,220,231
862384,169,228,238
862394,225,264,236
862404,221,236,208
862414,251,247,240
862424,179,260,219
862434,225,245,251
862444,181,231,217
862454,211,183,209
862464,207,220,194
862474,243,234,238
862484,185,229,200
862494,181,259,234
862579,238,215,253
862589,198,217,236
862599,262,223,219
862609,242,216,228
862619,258,239,253
862629,215,242,245
862639,208,243,243
862649,263,248,311
862659,328,357,422
862669,393,479,418
862679,479,503,461
862689,471,509,490
862699,492,472,482
862709,511,510,452
862719,511,456,478
862729,508,505,504
862739,460,498,503
862749,489,510,457
862759,500,524,481
862769,510,511,489
862779,506,518,482
862791,511,496,459
862806,511,506,493
862822,501,511,488
862837,511,501,495
862853,496,512,497
862869,466,494,511
862885,490,509,509
862901,471,493,507
862916,506,503,513
862932,497,513,476
862948,510,512,475
862964,511,507,504
862980,491,507,489
862996,510,512,510
863011,502,511,508
863027,510,511,499
863043,512,511,489
863059,512,511,429
863075,513,514,490
863091,513,512,511
863106,508,513,495
863122,501,512,516
863138,490,511,465
863154,506,514,459
863170,507,512,452
863185,488,512,492
863201,505,512,507
863217,509,510,501
863233,516,511,502
863249,514,513,450
863265,513,512,462
863280,512,511,505
863296,510,512,430
863312,497,512,477
863328,507,511,493
863344,494,512,506
863359,510,513,486
863375,501,512,502
863391,509,510,508
863407,511,514,512
863423,486,491,472
863439,486,473,353
863454,289,324,326
863470,226,248,239
863486,275,258,219
863502,270,212,247
863518,220,208,266
863534,182,271,263
863549,209,241,214
863565,176,228,237
863581,232,290,237
863597,176,241,232
863613,228,189,238
863628,205,204,253
863644,200,258,236
863660,206,241,243
863676,211,212,201
863692,250,218,216
863708,180,246,251
863723,167,179,200
863739,217,227,230
863755,214,215,240
863771,200,207,235
863787,262,193,265
863803,224,236,192
863818,225,225,259
863834,123,188,249
863850,252,230,212
863866,257,186,235
863882,140,249,253
863897,146,235,212
863913,183,221,238
863929,198,167,216
863945,266,268,218
863961,138,238,264
863977,202,261,248
863992,213,259,241
864008,267,245,260
864024,219,284,241
864040,212,279,301
864056,256,242,271
864071,373,422,333
864087,521,514,423
864103,430,498,503
864119,505,519,501
864135,496,478,473
864151,476,509,502
864166,456,494,490
864182,312,377,263
864198,249,268,233
864214,244,253,264
864230,240,253,249
864245,187,216,251
864261,209,260,313
864277,364,444,424
864293,479,498,444
864309,505,512,449
864325,461,511,472
864340,515,518,460
864356,501,517,450
864372,509,509,489
864388,483,505,495
864404,466,512,489
864419,416,508,485
864435,497,505,491
864451,478,491,488
864467,499,510,492
864483,505,497,461
864499,491,507,503
864514,509,515,477
864530,509,506,495
864546,488,516,461
864562,503,491,496
864578,436,505,431
864593,467,507,429
864609,490,511,485
864625,499,502,476
864641,510,505,485
864657,507,509,463
864673,511,508,504
864688,506,514,488
864704,511,514,491
864720,512,521,509
864736,513,509,499
864752,512,503,502
864767,512,511,466
864783,512,512,462
864799,513,512,504
864815,508,512,512
864831,495,511,457
864847,474,499,464
864862,471,509,342
864878,395,388,332
864894,435,288,334
864910,283,276,313
864926,257,220,256
864941,262,196,252
864957,261,185,233
864973,185,203,247
864989,259,566,213
865005,158,217,252
865021,211,207,229
865036,225,216,231
865052,121,179,264
865068,177,195,253
865084,178,218,250
865100,188,589,243
865115,234,221,242
865131,244,227,250
865147,219,217,240
865163,206,201,243
865179,161,238,281
865195,161,387,301
865210,240,170,214
865226,268,267,247
865242,208,159,252
865258,222,210,214
865274,202,436,197
865289,158,203,199
865305,185,206,283
865321,226,176,275
865337,155,172,237
865353,156,691,239
865435,216,231,270
865445,173,310,267
865455,157,197,263
865465,215,202,250
865515,219,230,260
865526,250,240,249
865536,260,236,237
865546,248,221,246
865556,238,217,241
865566,228,262,251
865576,194,247,246
865586,245,267,280
865676,164,243,309
865686,171,232,291
865696,257,225,270
865706,246,247,266
865716,220,236,245
865726,304,297,221
865736,298,249,247
865746,296,278,270
865756,201,239,284
865766,271,245,280
865776,310,286,273
865786,287,253,292
865796,320,262,321
865806,362,313,362
865816,419,403,398
865826,420,498,385
865836,397,505,366
865846,454,522,415
865856,501,508,459
865866,492,510,496
865876,509,481,443
865891,513,505,505
865906,512,490,515
865922,510,474,493
865938,498,512,482
865954,509,489,459
865970,510,526,519
865986,511,511,501
866001,472,527,492
866017,500,510,474
866033,482,497,476
866049,476,510,492
866065,498,480,422
866080,495,505,420
866096,492,502,407
866112,501,507,430
866128,501,505,417
866144,461,476,452
866160,455,468,427
866175,498,501,467
866191,482,509,467
866207,414,452,395
866223,474,495,376
866239,445,511,377
866254,347,510,398
866270,333,500,384
866286,366,377,366
866302,269,311,354
866318,269,219,296
866334,282,273,324
866349,276,269,301
866365,293,260,362
866381,306,277,243
866397,243,261,274
866413,241,218,252
866428,221,208,245
866444,247,228,252
866460,207,208,264
866476,222,190,248
866492,198,237,269
866508,167,229,234
866523,200,193,222
866539,291,216,198
866555,265,211,218
866571,237,237,263
866587,165,204,231
866602,203,183,251
866618,174,216,237
866634,220,222,249
866650,207,269,220
866666,198,186,242
866682,189,164,223
866697,177,288,247
866713,172,218,240
866729,247,245,219
866745,187,230,220
866761,237,216,208
866777,210,182,228
866792,230,216,275
866808,215,212,258
866824,256,498,223
866840,193,308,242
866856,178,214,262
866871,236,212,230
866887,220,224,233
866903,234,172,268
866919,198,174,236
866935,146,203,223
866951,167,211,263
866966,152,240,249
866982,182,194,228
866998,249,257,256
867014,193,224,240
867030,205,238,265
867045,228,204,256
867061,318,279,368
867077,357,346,295
867093,400,378,333
867109,372,437,357
867125,258,433,408
867140,306,399,429
867156,354,368,455
867172,452,491,473
867188,413,509,425
867204,497,511,463
867219,500,512,499
867235,511,511,498
867251,513,512,488
867267,512,510,509
867283,497,511,491
867299,510,511,496
867314,512,511,488
867330,512,511,505
867346,512,511,508
867362,513,497,513
867378,510,509,492
867393,513,509,466
867409,513,507,476
867425,484,508,471
867441,509,511,506
867457,512,511,488
867473,512,512,509
867488,513,512,509
867504,510,504,503
867520,512,510,508
867536,507,513,508
867552,481,513,511
867568,508,513,498
867583,511,513,476
867599,510,512,481
867615,478,513,485
867631,509,512,509
867647,511,511,486
867662,489,500,500
867678,511,510,508
867694,477,496,502
867710,507,477,504
867726,486,507,472
867742,507,475,502
867757,439,507,477
867773,460,511,395
867789,403,370,366
867805,370,321,311
867821,277,278,230
867837,214,286,258
867852,219,247,238
867868,252,250,262
867884,213,213,225
867900,192,221,268
867916,184,235,241
867931,182,169,221
867947,212,231,246
867963,198,223,228
867979,212,238,212
867995,211,230,256
868011,233,238,222
868026,251,232,219
868042,178,263,245
868058,200,243,250
868074,235,219,234
868090,202,228,219
868105,193,258,255
868121,204,242,224
868137,214,233,247
868153,156,637,216
868169,220,211,228
868185,259,231,216
868200,178,684,229
868216,225,218,277
868232,191,201,226
868248,198,298,248
868264,180,275,245
868279,204,185,245
868295,197,232,230
868311,203,228,224
868327,206,270,213
868343,211,245,239
868359,184,235,239
868374,188,215,252
868390,206,188,230
868406,193,213,226
868422,189,412,217
868438,249,231,206
868453,180,217,258
868469,221,222,223
868485,175,236,223
868501,166,242,243
868517,184,202,215
868533,207,219,239
868548,201,236,252
868564,202,271,212
868580,177,235,243
868596,167,267,212
868612,203,194,203
868627,224,207,234
868757,214,238,260
868767,232,219,232
868777,241,175,249
868787,189,156,252
868797,230,249,241
868807,211,241,212
868817,243,242,195
868827,187,193,197
868883,203,653,230
868893,236,221,267
868903,273,249,259
868913,239,250,293
868923,253,258,324
868933,296,365,360
868943,350,339,349
869342,01
869352,
869362,508,498,470
869375,1,470,507
869385,511,504,496
869395,511,507,502
869405,509,510,504
869415,511,511,497
869425,511,511,447
869435,513,496,504
869445,466,493,512
869455,505,510,480
869465,496,510,495
869475,508,511,481
869485,512,489,507
869495,502,509,511
869505,501,505,512
869515,509,511,472
869525,510,510,472
869535,486,509,470
869545,509,483,488
869555,510,506,509
869565,479,512,513
869575,508,511,511
869585,510,509,503
869595,513,512,493
869605,509,512,505
869615,513,511,507
869625,504,506,508
869635,484,488,466
869645,510,456,506
869655,513,504,485
869665,519,511,509
869675,497,511,511
869685,481,505,482
869695,466,506,480
869705,428,471,473
869715,395,455,440
869725,430,479,403
869735,418,469,387
869745,421,482,354
869755,414,372,324
869765,360,362,307
869775,371,324,264
869785,340,263,295
869795,309,295,261
869805,271,299,289
869815,293,296,301
869825,267,251,274
869835,268,241,229
869845,231,245,199
869855,239,232,234
869865,266,218,230
869875,233,217,250
869885,207,247,223
869895,204,224,239
869909,259,230,256
869925,179,258,240
869941,294,277,223
869956,261,259,226
869972,299,266,288
869988,276,295,266
870004,260,248,349
870020,328,325,298
870036,367,294,345
870051,381,347,306
870067,422,426,407
870083,391,501,394
870099,437,415,391
870115,458,499,396
870130,482,506,388
870146,466,495,395
870162,505,504,390
870178,412,511,424
870194,402,509,423
870210,355,508,366
870225,341,430,309
870241,323,345,274
870257,269,252,267
870273,233,290,252
870289,177,278,200
870304,216,254,264
870320,249,236,223
870336,213,224,268
870352,247,261,267
870368,179,257,246
870384,232,249,238
870399,237,243,235
870415,208,309,247
870431,214,210,199
870447,229,402,217
870463,222,233,240
870479,210,285,216
870494,216,243,281
870510,259,231,254
870526,254,198,224
870542,215,276,214
870558,251,239,226
870573,218,256,209
870589,248,248,193
870605,221,224,232
870621,265,243,203
870637,195,257,236
870653,285,276,249
870668,228,243,201
870684,236,227,236
870700,179,223,188
870716,189,241,241
870732,217,271,209
870747,235,252,274
870763,207,236,209
870779,254,226,226
870795,209,227,206
870811,225,266,241
870827,229,196,200
870842,222,222,253
870858,212,223,249
870874,189,234,190
870890,219,234,242
870906,219,225,254
870921,240,210,197
870937,212,254,237
870953,218,231,230
870969,234,251,245
870985,168,279,230
871001,174,233,249
871016,210,263,242
871032,200,198,251
871048,211,210,233
871064,236,235,209
871080,267,262,248
871095,265,298,269
871111,245,238,263
871127,241,246,240
871143,261,278,229
871159,217,287,244
871175,300,274,248
871190,234,281,280
871206,294,321,290
871222,329,343,310
871238,417,487,401
871254,459,425,457
871269,403,495,433
871285,431,502,428
871301,418,493,473
871317,409,462,459
871333,435,486,388
871349,374,508,431
871364,456,511,450
871380,463,511,433
871396,456,512,440
871412,504,510,480
871428,479,511,481
871443,510,422,508
871459,512,499,494
871475,512,506,507
871491,505,518,498
871507,506,497,495
871523,511,450,505
871538,507,508,484
871554,499,511,498
871570,505,518,499
871586,510,526,485
871602,508,478,481
871617,512,505,457
871633,443,509,495
871649,497,510,418
871665,395,506,339
871681,287,348,314
871697,224,288,280
871712,213,259,311
871728,314,284,263
871744,226,315,260
871760,198,288,222
871776,240,262,294
871791,255,221,245
871807,281,288,234
871823,336,291,238
871839,270,304,244
871855,238,279,223
871871,208,282,237
871886,288,238,248
871947,212,256,261
871957,185,233,251
871967,259,225,250
871977,208,267,245
871987,179,252,254
871997,164,201,237
872093,214,247,249
872103,238,253,258
872115,183,180,213
872125,231,279,189
872137,247,279,213
872147,193,270,223
872456,52,227,198
872466,171,212,243
872476,192,258,177
872486,148,247,232
872496,153,226,215
872506,160,244,213
872516,211,219,219
872526,178,207,221
872536,246,170,217
872546,243,263,244
872556,180,223,242
872567,193,243,207
872577,157,246,180
872587,208,225,199
872597,245,268,200
872607,200,252,244
872617,199,260,226
872627,172,231,231
872637,201,231,221
872647,176,251,221
872657,152,225,229
872667,209,257,212
872677,190,198,196
872687,237,198,198
872697,177,230,226
872707,188,248,225
872717,137,244,215
872727,230,239,198
872737,181,214,223
872747,186,229,223
872757,244,192,195
872767,191,202,195
872777,208,205,199
872787,222,259,182
872797,200,238,196
872807,161,229,236
872817,188,270,214
872827,222,274,199
872837,175,256,248
872847,222,230,275
872857,167,230,228
872867,220,229,231
872877,240,243,233
872887,176,239,209
872897,205,215,218
872907,200,208,210
872917,217,225,237
872927,195,220,189
872937,264,237,231
872947,205,267,221
872957,238,278,250
872967,246,209,220
872978,228,196,227
872994,161,230,203
873010,167,260,236
873025,207,289,237
873041,198,201,258
873057,163,251,239
873073,169,253,233
873089,179,291,232
873104,161,214,239
873120,193,221,221
873136,207,210,214
873152,159,243,226
873168,187,216,241
873184,228,210,251
873199,165,214,208
873215,245,221,204
873231,165,282,209
873247,243,269,246
873263,270,296,294
873278,320,418,403
873294,424,457,427
873310,501,509,422
873326,494,498,478
873342,488,519,512
873358,511,508,509
873373,509,507,484
873389,479,486,507
873405,508,509,521
873421,511,508,506
873437,510,511,461
873453,506,509,501
873468,503,514,458
873484,509,518,479
873500,512,497,483
873516,490,508,471
873532,502,510,503
873547,510,502,496
873563,507,510,452
873579,499,503,471
873595,506,510,510
873611,510,518,512
873627,511,511,505
873642,513,514,456
873658,492,513,499
873674,485,513,496
873690,499,516,507
873706,510,510,502
873721,491,511,511
873737,508,513,456
873753,506,511,493
873769,493,514,467
873785,509,510,508
873801,511,510,513
873816,509,510,493
873832,510,512,444
873848,511,513,469
873864,506,426,408
873880,480,502,381
873896,482,501,337
873911,467,516,422
873927,461,482,365
873943,370,406,376
873959,328,469,362
873975,315,333,279
873990,335,464,385
874006,407,502,446
874022,365,512,370
874038,441,462,416
874054,364,450,449
874070,299,473,367
874085,353,442,334
874101,371,465,395
874117,343,406,381
874133,300,486,420
874149,401,483,400
874164,337,498,368
874180,320,478,400
874196,361,501,355
874212,402,471,310
874228,368,458,331
874244,315,378,289
874259,249,302,233
874275,192,273,244
874291,229,264,210
874307,183,253,240
874323,231,264,221
874338,214,213,205
874354,214,260,229
874370,233,280,249
874386,231,258,221
874402,249,276,224
874418,194,260,197
874433,205,249,231
874449,225,258,274
874465,190,256,254
874481,200,274,256
874497,183,231,243
874512,206,285,230
874528,238,203,238
874544,209,239,222
874560,220,246,190
874576,197,305,250
874592,257,272,186
874607,216,240,218
874623,252,281,244
874639,207,232,177
874655,164,194,203
874671,174,258,230
874686,191,245,230
874702,179,254,193
874718,198,210,215
874734,139,261,205
874750,187,263,190
874766,161,221,212
874781,149,234,232
874797,221,193,202
874813,199,220,210
874829,247,212,218
874845,210,212,218
874860,175,250,261
874876,153,242,244
874892,223,215,226
874908,161,253,213
874924,182,191,226
874940,227,241,168
874955,204,185,243
874971,166,239,219
874987,181,273,227
875003,269,250,207
875019,669,324,231
875034,252,338,267
875050,306,443,329
875066,345,420,300
875082,389,500,301
875221,414,510,371
875231,422,506,350
875242,425,502,374
875252,467,451,393
875262,448,497,341
875272,435,509,390
875282,387,496,360
875320,378,496,407
875330,424,510,412
875340,452,512,386
875350,487,511,411
875360,467,511,460
875370,456,496,432
875380,426,503,442
875390,482,479,442
875400,481,436,408
875410,406,502,417
875420,434,416,417
875430,457,474,343
875440,452,507,345
875450,424,512,359
875460,467,503,327
875470,447,474,338
875480,372,503,375
875490,417,512,370
875500,449,497,366
875510,479,492,336
875525,506,507,380
875541,502,509,368
875557,506,510,351
875572,438,502,297
875588,452,510,356
875713,415,507,337
875723,413,497,346
875733,423,509,365
875743,407,510,385
875753,407,503,346
875763,433,492,360
875773,489,444,365
875784,460,498,344
875796,487,511,382
875806,503,473,398
875816,494,492,418
875826,473,510,377
875836,489,510,370
875846,475,497,400
875856,483,509,438
875866,499,511,459
875876,470,511,460
875886,467,512,414
875896,491,499,423
875906,497,509,435
875920,502,512,473
875936,483,441,389
875952,454,503,406
875968,468,511,441
875984,481,509,346
875999,497,511,432
876015,405,511,420
876031,462,511,432
876047,498,511,453
876063,496,508,411
876079,507,512,437
876094,492,512,353
876110,482,512,475
876126,499,512,448
876142,486,513,456
876158,489,513,452
876174,499,513,493
876189,510,509,454
876205,511,509,467
876221,478,509,438
876237,433,511,456
876253,468,511,498
876268,502,513,470
876284,508,512,486
876300,512,512,499
876316,477,513,443
876332,491,487,451
876348,485,508,475
876363,491,511,490
876379,488,504,474
876395,495,510,480
876411,469,512,472
876427,470,506,473
876442,491,512,492
876458,460,508,473
876474,479,511,495
876490,499,513,455
876506,500,500,435
876522,495,510,502
876537,470,511,500
876553,505,512,474
876569,512,511,481
876585,464,503,443
876601,506,511,455
876616,511,512,494
876632,503,512,470
876648,494,502,464
876664,501,481,474
876680,507,506,489
876696,499,511,473
876711,486,497,495
876727,484,509,477
876743,508,510,489
876759,505,513,505
876775,501,513,501
876791,508,495,479
876806,510,508,495
876822,508,494,499
876838,511,508,495
876854,512,510,458
876870,480,513,486
876885,427,512,492
876901,446,512,454
876917,416,465,400
876933,333,445,312
876949,364,349,261
876965,226,344,216
876980,257,365,248
876996,333,307,256
877012,245,310,244
877028,196,328,236
877044,175,284,235
877059,253,277,215
877075,206,233,270
877091,240,317,238
877107,201,335,261
877123,239,314,187
877139,213,303,223
877154,167,299,216
877170,254,232,229
877186,209,224,269
877202,178,215,238
877218,269,321,196
877233,237,262,268
877249,219,276,215
877265,173,234,186
877281,184,247,225
877297,145,237,199
877313,154,234,199
877328,142,272,241
877344,218,250,224
877360,218,294,217
877376,198,267,244
877392,199,266,224
877407,215,278,231
877423,204,277,216
877439,202,256,215
877455,245,234,220
877471,228,227,215
877487,192,271,249
877502,179,268,209
877518,203,189,221
877534,262,315,250
877550,212,267,210
877566,176,328,215
877581,192,282,226
877597,220,270,231
877613,178,252,260
877629,246,264,193
877645,257,359,267
877661,334,410,379
877676,311,477,401
877692,371,426,347
877708,384,484,410
877724,359,508,415
877740,385,482,408
877755,336,508,356
877771,399,444,326
877787,377,447,281
877803,426,476,376
877819,427,483,318
877835,440,488,341
877850,444,508,318
877866,451,512,346
877882,337,381,373
877898,424,464,359
877914,435,506,381
877929,414,415,356
877945,365,488,432
877961,306,469,423
877977,337,507,451
877993,354,512,364
878009,344,421,349
878024,402,448,336
878040,439,492,311
878056,440,499,327
878072,404,500,313
878088,455,509,307
878103,411,508,354
878119,462,468,456
878135,384,502,407
878151,444,510,366
878167,500,508,401
878183,510,511,379
878198,456,511,380
878214,492,508,450
878230,453,508,451
878246,415,501,437
878262,458,510,481
878278,476,477,393
878293,508,507,341
878309,479,507,398
878325,508,510,408
878341,490,417,405
878357,396,493,357
878474,381,491,349
878484,440,504,442
878494,393,512,398
878504,423,496,304
878514,281,315,250
878524,232,283,240
878534,208,255,211
878544,266,240,207
878555,211,265,228
878765,174,285,243
878775,190,307,229
878785,230,270,237
878795,288,304,245
878805,247,262,232
878815,221,273,236
878825,206,320,219
878835,264,256,256
878845,194,301,223
878855,210,286,209
878865,219,318,167
878875,238,295,170
878885,179,312,208
878953,174,271,217
878963,177,258,247
878973,204,306,222
878983,231,306,240
878993,222,280,228
879003,157,253,263
879013,146,267,210
879023,214,261,225
879033,186,272,205
879043,199,275,204
879053,152,235,193
879064,166,239,216
879074,208,251,264
879084,196,272,262
879094,187,203,191
879105,201,228,204
879115,192,252,189
879125,196,239,201
879135,211,237,197
879145,202,204,195
879155,269,269,252
879165,228,343,260
879175,316,386,312
879185,459,493,400
879195,505,508,432
879205,505,506,470
879215,506,512,456
879225,512,511,480
879235,509,511,476
879245,503,511,418
879256,480,512,497
879266,508,501,485
879276,508,510,506
879286,507,510,502
879296,510,511,473
879306,512,512,499
879316,512,510,507
879326,512,512,506
879336,511,512,457
879346,463,514,492
879356,505,502,510
879369,464,501,495
879385,506,510,510
879401,508,503,507
879417,507,510,485
879432,501,493,491
879448,509,508,481
879464,510,509,475
879480,511,511,475
879496,510,512,484
879511,512,514,477
879527,512,512,508
879543,513,512,512
879559,508,512,494
879575,511,512,500
879591,512,504,511
879606,513,510,480
879622,506,510,462
879638,509,512,505
879654,508,512,473
879670,494,507,503
879686,510,512,472
879701,512,512,506
879717,471,509,491
879733,496,512,478
879749,510,513,507
879765,511,511,498
879780,505,513,501
879796,511,468,503
879812,512,506,488
879828,446,511,480
879844,494,511,452
879860,511,512,468
879875,424,512,434
879891,315,432,323
879907,183,344,279
879923,262,331,228
879939,248,321,190
879954,244,303,192
879970,233,287,227
879986,229,269,220
880002,231,243,263
880018,204,291,240
880034,222,296,264
880049,181,256,223
880065,132,270,229
880081,134,258,219
880097,140,300,184
880113,168,272,243
880128,181,269,171
880144,207,221,229
880160,219,265,205
880176,163,261,199
880192,179,316,192
880208,181,270,192
880223,150,246,221
880239,177,297,246
880255,194,277,211
880271,136,457,205
880287,137,239,195
880302,191,286,225
880318,178,270,231
880334,186,269,185
880350,159,264,184
880366,153,236,254
880382,170,269,222
880397,225,247,209
880413,166,234,207
880429,220,262,205
880445,210,224,250
880461,207,281,217
880477,148,242,225
880492,140,223,207
880508,138,250,235
880524,200,225,220
880540,206,219,256
880556,137,321,237
880571,148,286,185
880587,201,323,201
880603,187,296,207
880619,210,316,201
880635,249,294,220
880651,237,320,260
880666,305,444,300
880682,299,489,350
880698,435,509,421
880714,474,508,487
880730,504,511,441
880745,509,512,451
880761,512,502,484
880777,512,511,426
880793,507,510,480
880809,509,510,507
880825,492,510,496
880840,506,512,478
880856,510,509,495
880872,509,511,486
880888,505,512,497
880904,506,512,498
880919,511,504,465
880935,513,508,465
880951,509,512,505
880967,460,513,509
880983,505,512,498
880999,511,512,490
881014,510,513,493
881030,507,508,498
881046,512,511,505
881062,512,499,509
881078,461,511,512
881093,503,512,485
881109,483,512,523
881125,508,512,501
881141,503,512,477
881157,497,505,507
881173,505,510,501
881188,500,512,482
881204,511,476,472
881220,506,506,451
881236,431,502,467
881252,484,510,462
881267,363,491,435
881283,457,508,462
881299,468,513,477
881315,503,498,381
881331,499,508,386
881347,481,501,416
881362,324,450,364
881378,167,276,293
881394,145,307,245
881410,166,258,234
881426,202,281,219
881441,186,228,180
881457,174,258,207
881473,194,231,235
881489,166,271,214
881505,132,306,200
881521,202,236,235
881536,180,197,244
881552,157,245,202
881568,146,270,227
881584,109,256,193
881600,148,286,208
881616,203,256,211
881631,247,344,195
881756,213,292,199
881766,207,270,216
881776,177,246,221
881786,159,303,191
881796,122,270,262
881806,147,273,197
881816,197,245,200
881826,149,245,267
881836,181,259,239
881846,162,234,213
881856,200,229,222
881866,196,231,214
881876,147,256,202
881886,132,307,224
881896,131,262,210
881906,137,245,204
881916,131,279,221
881926,183,227,203
881936,187,229,216
881948,164,280,192
881964,178,269,204
881979,179,318,203
881995,203,315,232
882011,218,320,193
882027,141,308,216
882043,191,260,193
882058,145,291,178
882074,143,263,213
882090,137,222,197
882106,136,211,208
882122,194,221,217
882138,192,221,210
882153,165,273,185
882169,167,229,176
882185,143,236,222
882201,187,267,216
882217,181,258,163
882232,120,268,218
882248,218,263,200
882264,150,251,209
882280,126,315,216
882296,146,251,231
882312,151,282,201
882327,116,272,231
882343,204,277,267
882359,179,291,199
882375,260,299,210
882391,221,305,210
882406,189,304,233
882422,183,274,220
882488,146,305,147
882498,175,256,257
882508,179,268,168
882518,250,244,251
882528,204,291,248
882538,205,317,250
882549,226,312,262
882896,
882906,314,411,284
882916,4,495,370
882926,439,496,378
882936,304,498,335
882946,295,360,320
882956,224,270,222
882966,201,285,226
882976,206,299,210
882986,134,271,217
882996,100,279,235
883006,97,223,223
883016,204,279,256
883027,164,248,220
883037,141,279,298
883047,165,262,218
883057,180,267,232
883067,172,298,180
883077,250,296,216
883087,205,298,216
883097,236,302,250
883107,207,316,203
883117,205,292,275
883127,246,264,256
883137,249,265,250
883149,211,238,227
883159,179,272,257
883170,182,288,224
883181,132,279,250
883191,190,276,238
883201,79,288,233
883211,173,343,274
883221,202,288,225
883231,145,277,242
883241,160,285,169
883251,206,269,200
883261,167,309,196
883271,132,283,240
883281,194,304,226
883291,209,273,227
883301,191,257,218
883311,151,256,180
883321,178,295,165
883331,156,259,172
883341,147,242,234
883351,155,237,236
883361,166,244,211
883371,164,239,241
883381,168,296,210
883391,142,277,243
883401,170,276,203
883411,82,222,238
883421,132,257,271
883431,113,239,285
883441,679,256,212
883451,158,269,214
883466,141,251,191
883482,706,230,355
883498,114,295,169
883514,154,281,218
883529,192,258,272
883545,198,284,248
883561,210,261,254
883577,172,280,232
883593,254,337,244
883609,232,399,267
883624,236,345,240
883640,259,396,254
883656,284,301,265
883672,209,305,237
883688,187,324,208
883703,138,339,230
883719,167,244,236
883735,159,259,228
883751,158,269,236
883767,172,260,211
883783,193,275,236
883798,142,240,234
883814,184,269,212
883830,209,282,228
883846,137,299,262
883862,180,259,248
883877,200,312,196
883893,148,274,309
883909,144,265,245
883925,180,273,223
883941,200,262,231
883957,142,294,246
883972,140,297,237
883988,153,257,229
884004,185,274,204
884020,118,312,245
884036,184,209,216
884052,261,249,217
884067,156,246,232
884083,170,243,231
884099,177,284,273
884115,191,276,248
884131,218,236,208
884146,191,277,206
884162,142,273,249
884178,151,238,227
884194,204,312,237
884210,221,268,250
884226,198,293,241
884241,180,322,240
884257,204,330,245
884273,228,301,267
884289,205,295,257
884305,231,273,291
884320,243,276,244
884336,207,299,210
884352,247,315,227
884368,246,273,256
884384,173,277,236
884400,203,269,223
884415,182,262,225
884431,212,245,254
884447,162,208,243
884463,169,265,209
884479,113,249,208
884494,130,272,229
884510,203,284,259
884526,172,273,248
884542,128,268,252
884558,192,241,259
884574,164,230,242
884589,208,247,233
884605,186,254,218
884621,220,252,207
884637,245,261,215
884653,124,260,214
884669,231,300,223
884684,257,261,233
884700,215,316,221
884716,211,187,269
884732,204,270,217
884748,207,269,222
884763,155,276,290
884779,153,247,235
884795,118,266,211
884811,150,247,225
884827,153,239,196
884843,175,257,243
884858,186,236,215
884874,201,287,198
884890,219,289,244
884906,167,309,234
884922,320,327,269
884937,231,365,287
884953,234,375,247
884969,169,298,254
884985,211,294,267
885001,170,328,236
885017,192,278,216
885032,204,242,220
885048,121,308,236
885064,192,282,204
885080,204,308,224
885096,218,294,180
885111,212,286,181
885127,156,278,226
885143,175,322,234
885159,201,286,273
885175,162,307,253
885191,203,276,257
885206,184,254,278
885222,262,280,234
885238,208,282,237
885254,168,325,235
885270,225,295,240
885285,215,291,214
885301,167,282,207
885317,220,339,201
885333,755,332,220
885349,199,316,190
885365,244,313,201
885380,311,318,246
885396,189,355,280
885412,203,297,212
885428,181,280,250
885444,154,307,206
885459,135,284,249
885475,160,239,232
885491,111,216,199
885507,124,228,185
885523,164,239,242
885539,247,249,174
885592,223,219,205
885602,195,224,212
885612,147,287,195
885622,209,270,244
885632,257,312,266
885642,154,344,262
885652,189,295,242
885703,183,348,236
885714,199,291,275
885724,217,336,234
885734,288,301,183
885744,230,283,218
885754,239,359,245
885764,204,313,177
885776,189,323,225
885792,191,296,237
885807,154,241,193
885823,159,237,227
885839,125,233,260
885855,177,250,244
885871,193,248,213
885887,219,230,288
885902,224,296,242
885918,248,318,256
885934,246,282,258
885950,272,384,247
885966,286,379,207
885982,330,366,261
885997,198,331,210
886125,264,343,232
886135,306,374,264
886145,271,371,246
886155,280,429,254
886165,259,337,258
886175,261,305,274
886186,231,243,222
886196,189,285,645
886207,185,320,176
886218,168,298,254
886229,181,284,254
886239,198,290,198
886250,251,281,235
886261,232,287,209
886271,222,346,211
886281,200,360,221
886291,169,299,226
886301,197,333,246
886311,214,334,214
886321,282,342,244
886331,317,341,229
886345,290,332,255
886361,274,375,258
886377,233,366,236
886393,223,270,209
886409,174,297,215
886424,269,272,238
886440,279,250,243
886456,266,329,259
886472,211,280,259
886488,171,295,253
886504,149,290,226
886519,137,292,248
886535,224,288,270
886551,349,303,251
886567,307,287,254
886583,309,314,266
886598,235,323,251
886614,246,277,266
886630,363,343,279
886646,314,329,299
886662,315,312,277
886678,266,303,266
886693,305,378,281
886709,283,373,291
886725,520,273,272
886741,249,333,249
886757,209,340,273
886772,223,320,215
886788,182,294,209
886804,122,275,194
886820,140,244,217
886836,140,208,243
886852,177,326,241
886867,244,330,242
886883,278,301,242
886899,240,318,244
886915,262,358,234
886931,265,351,299
886946,266,367,317
886962,232,439,315
886978,217,324,266
886994,231,336,233
887010,222,325,272
887026,174,346,252
887041,216,314,228
887057,293,316,246
887073,216,267,198
887089,146,255,213
887105,176,243,197
887120,157,275,204
887136,178,302,213
887152,155,308,217
887168,185,295,235
887184,160,313,195
887200,176,344,207
887215,194,313,272
887231,213,361,199
887247,276,295,224
887263,233,319,185
887279,213,318,224
887294,196,295,222
887310,275,338,275
887326,259,364,270
887342,234,333,275
887358,256,388,346
887374,319,354,314
887389,201,297,245
887405,157,323,254
887421,249,292,259
887437,189,271,256
887453,203,251,217
887468,120,313,239
887484,142,279,209
887500,734,281,240
887516,141,242,214
887532,185,253,201
887548,221,286,219
887563,260,287,205
887579,209,284,217
887595,240,293,213
887611,235,365,222
887627,238,369,226
887642,182,376,219
887658,181,339,261
887674,284,324,279
887690,193,324,289
887706,276,305,302
887722,291,268,236
887737,223,274,233
887753,259,298,215
887769,234,298,247
887785,167,323,240
887801,174,312,212
887816,188,343,194
887832,189,289,191
887848,162,266,238
887864,172,283,226
887880,164,302,227
887896,182,282,282
887911,171,343,197
887927,187,280,217
887943,201,262,195
887959,199,265,203
887975,187,305,221
887990,205,258,243
888006,169,238,199
888022,182,293,243
888038,190,251,263
888054,223,289,246
888070,279,290,216
888085,236,300,232
888101,239,300,277
888117,166,257,231
888133,121,257,234
888149,210,279,209
888165,218,293,222
888180,703,365,192
888196,136,210,217
888212,170,303,182
888228,278,253,202
888244,217,280,186
888260,216,295,231
888275,180,251,207
888291,159,237,274
888307,124,282,237
888323,145,260,218
888339,197,333,202
888354,179,288,254
888370,166,287,221
888386,183,254,204
888402,126,224,195
888418,146,244,197
888433,165,214,186
888449,134,188,196
888465,210,229,236
888481,252,292,216
888497,212,240,189
888513,219,285,283
888528,172,305,247
888544,213,319,228
888560,192,339,259
888576,240,266,242
888592,223,315,208
888607,274,355,264
888623,297,469,344
888639,349,510,353
888655,459,528,332
888671,439,503,383
888687,340,430,299
888702,310,347,249
888749,301,345,268
888759,177,327,267
888769,256,289,218
888779,187,312,215
888789,185,275,223
888828,167,275,201
888838,237,336,244
888848,139,276,217
888858,120,248,173
888940,152,270,261
888950,144,263,240
888960,248,297,172
888970,219,236,230
888980,197,236,201
888990,173,270,195
889000,156,246,192
889010,200,302,229
889020,229,343,231
889030,218,328,214
889040,225,271,221
889050,176,275,236
889060,175,259,233
889070,192,266,251
889082,234,239,204
889098,167,293,209
889114,153,276,197
889129,190,304,232
889145,251,303,177
889161,167,272,202
889177,195,258,220
889193,173,257,210
889209,162,270,202
889224,214,312,283
889240,221,340,281
889256,200,321,220
889272,209,272,216
889288,202,304,214
889303,207,313,222
889319,303,262,239
889335,264,307,216
889351,266,425,261
889367,246,355,256
889383,208,274,264
889398,192,303,230
889414,174,308,267
889430,298,308,295
889446,789,334,339
889462,193,426,254
889477,183,354,233
889493,150,268,184
889509,116,271,208
889525,139,244,246
889541,160,300,207
889557,218,299,265
889572,224,282,200
889588,213,280,213
889604,164,278,191
889620,191,269,194
889636,201,306,236
889652,197,336,197
889667,155,268,231
889683,167,284,196
889699,188,313,228
889715,273,311,212
889731,202,291,194
889746,219,312,242
889762,224,278,228
889778,213,307,212
889794,181,292,208
889810,188,275,191
889826,210,286,215
889841,182,262,212
889857,172,290,228
889873,260,326,261
889889,223,268,246
889905,250,252,266
889920,209,347,247
889936,223,330,213
889952,198,340,242
889968,192,358,205
889984,185,315,255
890000,200,254,270
890015,264,330,263
890031,203,337,251
890047,235,423,226
890063,256,389,220
890079,192,355,220
890094,123,298,214
890110,116,244,254
890126,195,294,226
890142,184,321,175
890158,213,288,221
890174,179,291,200
890189,168,276,203
890205,161,236,182
890221,177,303,240
890237,246,284,206
890253,232,273,200
890269,218,276,281
890284,232,254,222
890300,228,263,204
890316,210,269,218
890332,195,286,233
890348,200,275,267
890363,236,264,239
890379,314,328,221
890395,211,284,270
890411,228,305,243
890427,180,276,239
890443,189,305,186
890458,233,244,239
890474,199,271,232
890490,183,281,205
890506,199,283,197
890522,194,269,229
890537,169,257,251
890553,212,301,284
890569,244,292,295
890585,231,298,276
890601,202,279,261
890617,177,309,232
890632,142,338,274
890648,184,298,240
890664,242,256,215
890680,191,369,290
890696,277,468,249
890711,329,427,274
890727,233,423,277
890743,324,379,290
890759,340,482,371
890775,404,470,428
890791,450,501,360
890806,449,506,385
890822,400,448,278
890838,288,375,269
890854,176,314,219
890870,174,380,258
890885,383,491,324
890901,505,509,418
890917,478,512,502
890933,463,513,481
890949,471,512,507
890965,489,513,477
890980,497,512,501
890996,506,511,511
891012,517,512,494
891028,521,512,499
891044,532,513,512
891059,509,521,485
891075,329,382,331
891091,209,342,256
891107,205,306,212
891123,196,316,281
891139,228,323,223
891154,226,335,226
891170,206,317,209
891186,202,324,182
891202,251,309,215
891218,184,357,258
891233,210,339,287
891249,260,356,218
891265,284,359,269
891281,260,343,276
891297,344,396,322
891313,315,431,332
891328,330,505,359
891344,267,333,281
891360,213,362,254
891376,188,350,245
891392,255,353,240
891407,289,362,253
891423,251,332,241
891439,126,348,234
891455,215,316,230
891471,251,363,258
891487,172,343,296
891502,223,253,219
891518,128,282,246
891534,135,246,248
891550,189,252,247
891566,274,290,217
891581,239,247,204
891597,227,278,171
891613,183,248,212
891629,278,282,222
891645,223,284,220
891661,254,280,272
891676,198,297,236
891692,159,336,254
891708,270,289,245
891724,238,353,248
891740,305,332,261
891756,257,320,213
891771,230,267,210
891787,472,359,230
891803,199,304,205
891819,233,259,206
891835,167,267,202
891850,181,271,225
891866,203,320,202
891882,229,339,269
891898,165,286,264
891914,230,307,225
891930,203,295,180
891945,203,298,226
891961,165,276,224
891977,260,309,238
891993,255,301,272
892009,247,286,205
892024,205,276,214
892040,232,304,198
892056,209,313,205
892072,249,332,218
892088,224,341,217
892104,244,251,240
892119,200,296,230
892135,170,322,218
892151,362,441,284
892167,169,265,274
892183,234,298,220
892198,223,252,208
892213,96,271,220
892230,232,327,267
892246,252,276,211
892262,231,310,232
892278,201,313,272
892293,236,283,262
892309,277,328,290
892325,219,359,334
892341,273,320,362
892357,296,417,305
892372,313,361,336
892388,392,440,369
892404,308,374,312
892420,299,338,342
892436,290,362,282
892452,231,319,270
892467,270,320,244
892483,222,265,253
892499,199,296,250
892515,204,278,243
892531,173,270,220
892546,189,266,268
892562,405,425,301
892578,480,499,480
892645,508,511,508
892655,513,518,463
892665,502,511,500
892675,510,516,487
892685,501,514,517
892695,509,509,477
892744,475,520,502
892754,505,509,503
892764,510,518,487
892774,515,519,496
892784,485,509,467
892794,499,502,481
892804,456,511,474
892814,516,512,480
892824,410,522,454
892834,365,517,446
892847,384,471,343
892953,209,306,281
892963,144,260,242
892973,226,251,208
892983,221,259,229
892993,229,270,216
893003,189,292,247
893013,185,275,230
893023,230,265,242
893033,231,331,206
893043,185,338,232
893053,210,333,252
893063,252,335,219
893073,240,291,281
893083,229,320,258
893093,226,330,240
893103,237,316,251
893116,183,243,221
893132,218,316,221
893148,221,316,211
893163,177,297,247
893179,147,303,236
893195,265,289,250
893211,208,250,235
893227,214,270,237
893243,236,273,211
893259,189,248,207
893274,210,280,171
893290,214,269,262
893306,163,242,227
893322,184,325,175
893337,246,300,205
893353,229,304,256
893369,179,304,233
893385,215,329,256
893401,254,327,267
893417,293,334,256
893432,261,292,261
893448,231,321,216
893464,249,280,222
893480,185,265,271
893496,129,268,291
893512,143,280,232
893527,187,268,209
893543,237,252,218
893559,173,264,203
893575,168,268,247
893591,242,293,206
893606,219,284,234
893622,215,308,262
893638,219,281,245
893654,324,283,300
893670,293,331,271
893686,231,280,280
893701,270,361,266
893717,254,361,221
893733,228,353,245
893749,246,303,220
893765,243,294,245
893780,202,250,237
893796,183,242,242
893812,224,253,223
893828,215,329,204
893844,184,313,247
893860,195,294,217
893875,183,270,229
893891,182,277,212
893907,253,316,247
893923,166,251,243
893939,242,251,193
893954,190,293,200
893970,180,289,280
893986,189,301,276
894002,197,312,262
894018,210,318,187
894034,240,289,240
894049,271,328,242
894065,245,276,251
894081,191,338,256
894097,245,409,293
894113,196,281,274
894128,164,309,331
894144,197,276,311
894160,278,311,233
894176,265,323,261
894192,187,281,245
894208,145,253,206
894223,180,268,260
894239,246,318,279
894255,314,246,272
894271,234,232,262
894287,270,294,214
894303,209,294,240
894318,191,327,279
894334,258,321,249
894350,299,317,273
894366,227,418,268
894382,307,389,304
894397,345,426,254
894413,303,371,265
894429,222,338,219
894445,207,258,232
894461,201,288,190
894477,174,312,237
894492,212,280,271
894508,206,296,202
894524,199,261,239
894540,163,262,272
894556,243,307,223
894572,233,285,243
894587,214,333,253
894603,221,299,204
894619,251,291,210
894635,140,249,229
894651,192,297,226
894666,269,312,218
894682,200,245,213
894698,189,256,230
894714,256,277,246
894730,245,304,221
894746,246,320,262
894761,187,292,230
894777,240,367,221
894793,152,309,215
894809,164,273,220
894825,188,285,234
894840,163,333,165
894856,177,291,211
894872,126,269,228
894888,141,289,202
894904,147,332,182
894920,217,252,190
894935,253,248,230
894951,203,264,233
894967,169,281,185
894983,202,283,205
894999,219,284,227
895014,185,301,227
895030,224,260,229
895046,157,283,189
895062,304,347,275
895078,285,298,269
895094,261,265,222
895109,173,278,228
895125,183,283,216
895141,196,313,217
895157,276,325,245
895173,192,322,201
895188,233,285,238
895204,250,288,238
895220,229,302,223
895236,214,287,212
895252,246,306,220
895268,238,300,175
895283,207,267,209
895299,269,246,227
895315,243,285,193
895331,197,314,279
895347,289,332,231
895363,309,286,245
895378,279,286,193
895394,221,404,207
895410,225,326,210
895426,238,323,204
895442,282,365,220
895457,244,300,224
895473,223,326,223
895489,215,291,185
895505,183,295,228
895521,168,316,171
895537,166,284,169
895552,180,253,202
895568,181,264,197
895584,170,248,239
895600,305,249,196
895616,181,252,205
895631,237,333,223
895647,264,270,232
895696,251,324,225
895706,240,357,184
895716,225,389,240
895726,311,406,230
895737,377,428,233
895747,343,409,222
895758,322,368,267
895774,314,341,281
895790,302,344,252
895850,220,289,253
895860,211,285,205
895870,198,309,215
895880,210,305,227
895890,185,306,182
895900,230,291,191
895910,213,315,173
895920,160,309,212
895932,237,288,231
895948,366,276,232
895964,184,259,227
896061,228,268,206
896071,207,303,339
896081,242,385,300
896091,346,379,232
896101,404,493,260
896112,287,326,248
896123,257,413,246
896133,265,296,284
896143,279,288,226
896154,242,269,251
896165,259,343,234
896176,257,358,236
896187,211,338,243
896197,250,329,211
896207,212,287,198
896217,139,243,248
896233,146,274,207
896248,151,228,224
896264,167,268,173
896280,310,245,189
896296,233,262,209
896312,241,264,236
896328,211,249,196
896343,285,281,195
896359,219,343,186
896375,281,339,229
896391,206,341,234
896407,198,303,246
896422,249,319,236
896438,218,308,209
896454,216,312,250
896470,154,293,206
896486,149,261,172
896502,224,274,167
896517,165,298,194
896533,185,282,197
896549,172,258,223
896565,162,265,177
896581,142,271,194
896596,173,294,209
896612,169,291,220
896628,182,283,216
896644,223,253,222
896660,188,251,228
896676,144,288,180
896691,270,336,220
896707,182,269,202
896723,203,319,251
896739,208,303,199
896755,253,264,242
896770,282,294,258
896786,266,289,199
896802,204,295,216
896818,219,307,187
896834,201,327,199
896850,233,303,225
896865,173,283,168
896881,385,291,203
896897,114,246,208
896913,170,312,184
896929,190,293,196
896945,283,357,197
896960,237,290,231
896976,252,379,219
896992,232,326,234
897008,291,357,239
897024,332,395,270
897039,241,412,266
897055,250,422,301
897071,329,434,317
897087,251,374,342
897103,296,413,284
897119,232,405,300
897134,232,337,250
897150,209,291,214
897166,210,299,212
897182,201,335,176
897198,192,300,164
897213,182,320,190
897229,232,293,244
897245,246,309,272
897261,327,455,350
897277,432,504,399
897293,467,513,296
897308,422,467,322
897324,334,489,309
897340,341,421,324
897356,385,497,314
897372,435,498,301
897387,480,534,312
897403,378,378,245
897419,235,332,256
897435,224,351,260
897451,271,375,236
897467,235,388,295
897482,229,430,313
897498,301,392,275
897514,282,341,257
897530,263,326,271
897546,129,276,191
897561,163,285,185
897577,141,258,205
897593,200,294,194
897609,213,327,223
897625,272,277,213
897641,217,255,236
897656,217,312,169
897672,253,309,194
897688,260,312,179
897704,193,325,212
897720,274,305,205
897735,211,278,224
897751,188,363,194
897767,178,320,216
897783,208,281,204
897799,254,326,198
897815,224,308,220
897830,199,330,200
897846,183,313,234
897862,213,328,223
897878,193,329,248
897894,222,297,209
897909,151,305,226
897925,201,279,169
897941,233,294,220
897957,157,310,178
897973,198,324,269
897989,216,308,228
898004,158,289,241
898020,204,328,216
898036,258,333,239
898052,208,381,213
898068,226,374,197
898084,223,385,245
898099,222,329,252
898115,232,368,240
898131,223,369,254
898147,192,299,232
898163,169,358,230
898178,189,373,252
898194,219,311,185
898210,112,274,230
898226,155,279,219
898242,174,243,199
898258,211,280,185
898273,326,304,206
898289,268,362,255
898305,240,354,243
898321,248,300,213
898337,273,340,237
898352,290,355,243
898368,223,295,194
898384,202,312,178
898400,173,346,210
898416,229,351,224
898432,203,343,192
898447,200,365,204
898463,195,341,204
898479,206,278,184
898495,260,325,175
898511,145,278,199
898526,160,303,210
898542,179,278,173
898558,196,333,243
898574,133,277,229
898590,155,304,222
898606,234,370,201
898621,190,330,261
898637,232,366,201
898653,318,320,173
898669,194,332,256
898685,252,277,139
898700,249,359,264
898716,219,336,233
898732,205,344,208
898748,237,324,215
898764,221,374,212
898780,280,287,227
898795,281,359,297
898811,197,368,222
898827,188,276,210
898843,210,313,240
898859,247,291,201
898874,228,258,168
898890,136,275,214
898906,172,260,213
898922,224,304,201
898938,299,326,193
898977,249,320,188
898987,281,332,198
898997,228,331,254
899007,184,316,219
899018,259,315,230
899033,273,393,236
899048,171,342,193
899064,213,389,226
899080,274,409,270
899121,300,386,224
899131,277,373,239
899143,282,377,198
899153,335,394,220
899164,315,395,174
899225,294,310,177
899235,255,313,240
899245,236,342,271
899255,228,340,234
899265,229,389,281
899275,430,480,313
899285,501,505,434
899295,512,522,448
899305,513,510,527
899317,509,500,523
899333,513,512,521
899349,483,519,480
899365,508,507,512
899381,501,504,510
899397,452,514,429
899412,412,505,453
899428,277,417,276
899444,311,418,218
899460,315,495,294
899476,360,509,289
899491,452,508,407
899507,444,491,452
899523,336,352,300
899539,198,258,243
899555,117,272,163
899571,178,295,201
899586,192,320,175
899602,165,320,207
899618,316,350,205
899634,297,331,240
899650,268,392,238
899666,235,323,216
899681,269,359,198
899697,218,334,195
899713,257,327,220
899729,240,339,246
899745,224,310,225
899760,266,296,214
899776,283,333,239
899792,247,298,236
899808,272,274,192
899824,219,330,165
899840,207,319,227
899855,218,288,217
899871,253,306,210
899887,197,306,171
899903,187,320,215
899919,264,268,189
899934,226,310,193
899950,176,312,166
899966,195,375,216
899982,224,320,188
899998,249,278,179
900014,264,323,183
900029,218,355,200
900045,326,354,233
900061,262,354,220
900077,237,329,250
900093,295,310,264
900108,252,375,238
900124,314,337,178
900140,221,310,227
900156,184,283,173
900172,209,318,200
900188,134,339,234
900203,139,293,152
900219,147,320,168
900235,203,306,173
900251,174,296,223
900267,247,300,213
900282,302,273,193
900298,276,318,209
900314,241,342,239
900330,259,319,202
900346,248,348,275
900362,194,332,226
900377,188,262,187
900393,232,275,220
900409,210,370,224
900425,194,366,191
900441,230,332,245
900456,292,336,198
900472,254,337,188
900488,224,360,244
900504,209,376,194
900520,228,297,247
900536,180,298,580
900551,157,294,178
900567,233,292,185
900583,236,314,224
900599,264,383,192
900615,315,426,227
900630,240,387,210
900646,242,352,237
900662,244,372,272
900678,317,368,211
900694,291,391,200
900710,282,350,244
900725,257,386,220
900741,232,332,261
900757,276,378,194
900773,232,376,235
900789,221,346,192
900805,244,372,198
900820,131,311,207
900836,168,343,185
900852,167,324,158
900868,209,319,164
900884,202,302,201
900899,112,271,217
900915,176,316,202
900931,211,291,201
900947,269,328,178
900963,249,328,163
900979,254,308,183
900994,196,314,202
901010,213,283,183
901026,235,353,187
901042,259,394,199
901058,308,395,201
901073,229,375,207
901089,278,351,204
901105,269,320,175
901121,256,345,217
901137,246,317,181
901153,233,332,195
901168,234,294,216
901184,189,280,206
901200,232,314,244
901216,186,270,252
901232,193,284,238
901247,211,259,207
901263,217,331,189
901279,219,327,161
901295,228,314,174
901311,237,329,206
901327,214,281,221
901342,241,302,160
901358,261,330,199
901374,253,322,182
901390,177,336,178
901406,192,320,186
901421,223,287,206
901437,219,282,244
901453,251,334,254
901469,136,337,204
901485,211,345,207
901501,166,338,183
901516,207,305,195
901532,213,292,174
901548,145,305,183
901564,138,306,193
901580,143,244,147
901595,145,308,157
901611,276,322,211
901627,262,283,159
901643,257,282,185
901659,289,331,178
901675,235,357,194
901690,263,384,189
901706,234,369,207
901722,295,298,225
901738,278,317,227
901992,217,328,210
902002,231,363,197
902012,284,327,191
902022,200,334,180
902032,218,358,202
902042,241,296,222
902052,221,350,203
902062,260,285,211
902072,241,322,255
902082,190,298,200
902092,216,309,195
902102,250,396,267
902112,336,486,285
902122,317,514,352
902132,387,492,281
902142,432,482,373
902152,419,512,291
902162,485,505,407
902172,508,513,389
902182,513,516,400
902193,468,507,475
902203,509,509,436
902213,487,518,468
902224,522,505,464
902235,452,502,485
902294,374,504,431
902304,420,503,387
902314,305,469,317
902324,243,410,204
902334,163,326,192
902344,153,285,168
902354,150,316,176
902364,202,314,216
902374,337,282,186
902384,351,325,211
902552,223,353,189
902562,230,343,194
902572,328,311,219
902582,281,340,208
902592,244,316,255
902602,212,341,242
902612,220,302,230
902622,251,305,291
902632,238,288,260
902642,272,334,218
902652,290,292,209
902662,201,272,278
902672,235,310,253
902682,233,302,159
902692,231,315,239
902702,261,351,190
902712,205,314,183
902722,196,308,208
902732,216,376,283
902742,229,371,171
902752,188,326,211
902762,153,282,202
902772,207,284,205
902782,346,460,356
902792,429,499,348
902802,473,520,421
902812,503,514,440
902822,502,513,375
902832,483,510,361
902842,377,517,315
902853,284,406,233
902863,317,444,215
902873,251,402,188
902883,199,357,244
902893,173,368,194
902903,155,309,180
902913,126,279,183
902923,140,266,161
902933,107,278,193
902943,150,260,177
902953,239,302,174
902963,250,323,181
902973,187,283,247
902988,218,251,161
903003,218,332,181
903019,264,374,233
903035,231,345,201
903051,243,348,256
903067,258,338,225
903083,225,343,235
903098,238,370,256
903114,267,335,207
903130,251,342,216
903146,198,340,345
903162,216,292,212
903177,182,274,200
903193,249,284,242
903209,173,293,205
903225,208,285,216
903241,187,307,227
903257,234,310,207
903272,189,307,192
903288,176,281,185
903304,144,250,122
903320,150,274,194
903336,183,260,169
903351,168,307,178
903367,167,283,237
903383,224,300,187
903399,228,310,194
903415,269,369,181
903431,289,287,172
903446,181,362,149
903462,175,320,243
903478,131,360,285
903494,198,293,197
903510,177,266,174
903525,176,309,191
903541,232,287,167
903557,160,320,192
903573,216,351,234
903589,204,345,222
903605,289,356,214
903620,339,375,250
903636,289,432,232
903652,331,462,199
903668,383,401,206
903684,376,456,253
903699,306,398,233
903715,319,460,233
903731,371,440,285
903747,341,439,200
903763,200,306,176
903779,222,285,192
903794,208,276,200
903810,230,294,179
903826,206,318,187
903842,208,310,239
903858,220,287,217
903874,160,328,220
903889,221,316,215
903905,186,271,201
903921,232,455,323
903937,461,500,429
903953,468,508,483
903968,506,514,496
903984,503,516,520
904000,500,512,484
904016,511,510,466
904032,508,514,499
904048,511,503,513
904063,509,513,461
904079,490,512,472
904095,489,473,475
904111,456,502,450
904127,462,511,442
904142,378,496,461
904158,313,502,395
904174,348,463,365
904190,245,336,184
904206,209,300,205
904222,189,304,171
904237,133,263,170
904253,192,282,228
904269,199,278,192
904285,250,284,179
904301,259,284,152
904317,191,293,192
904332,295,291,189
904348,259,339,172
904364,216,322,180
904380,248,323,201
904396,228,351,287
904411,256,359,243
904427,247,328,181
904443,260,324,216
904459,292,305,197
904475,247,371,184
904491,190,343,186
904506,252,304,231
904522,191,318,193
904538,175,295,213
904554,202,347,221
904570,211,307,174
904585,199,280,200
904601,209,320,211
904617,209,280,246
904633,242,344,252
904649,218,408,220
904665,219,347,305
904680,265,357,305
904696,329,351,210
904712,286,415,243
904728,268,387,187
904744,297,397,232
904759,296,374,191
904775,281,339,187
904791,270,328,264
904807,281,393,286
904823,218,408,298
904839,194,311,231
904854,198,369,190
904870,236,311,153
904886,167,254,167
904902,141,268,158
904918,101,239,234
904933,180,313,163
904949,236,270,219
904965,348,336,179
904981,259,350,200
904997,192,316,216
905013,215,299,191
905028,287,351,253
905044,225,369,251
905060,285,307,203
905076,320,310,228
905092,279,339,248
905107,285,352,198
905123,216,330,210
905139,169,339,224
905155,229,332,245
905171,238,301,269
905187,225,352,272
905202,218,334,179
905218,195,299,213
905234,244,289,200
905250,192,328,239
905266,261,393,351
905281,321,420,380
905297,291,416,311
905313,198,310,182
905329,187,280,215
905345,238,353,164
905361,302,446,262
905376,279,494,351
905392,320,509,306
905408,239,370,287
905424,171,314,233
905440,227,358,269
905456,325,339,239
905471,274,341,210
905487,205,393,196
905503,367,293,204
905519,201,276,165
905535,175,298,204
905550,243,344,193
905566,234,269,213
905582,164,255,206
905598,169,251,194
905614,185,272,195
905630,274,294,181
905645,219,299,191
905661,229,313,199
905677,189,280,219
905693,277,395,230
905768,287,401,320
905778,262,454,379
905788,352,414,329
905798,308,404,321
905808,300,352,292
905818,367,338,310
905828,303,361,188
905838,222,323,225
905848,185,345,216
905858,194,333,250
905868,225,324,215
905883,196,311,224
905898,206,327,216
905914,193,303,226
905930,173,340,223
905946,201,343,288
905962,193,288,218
905978,234,352,189
905993,219,264,220
906009,172,289,226
906076,208,310,214
906086,251,336,226
906096,229,332,234
906106,224,296,209
906116,204,335,249
906126,185,346,241
906136,223,373,269
906146,282,303,263
906156,233,393,259
906167,114,376,270
906183,221,325,189
906199,173,290,240
906215,190,307,184
906327,153,271,218
906337,98,288,209
906347,197,278,259
906357,161,244,237
906368,232,288,200
906378,288,325,194
906388,202,320,200
906398,213,300,252
906408,168,301,226
906419,236,360,272
906430,234,320,217
906440,302,334,266
906450,210,356,292
906460,227,310,197
906470,256,336,226
906480,167,361,227
906490,233,311,219
906500,229,333,245
906515,196,326,282
906531,239,270,256
906547,192,241,221
906563,235,276,237
906579,197,281,235
906594,143,359,203
906610,207,361,188
906626,188,328,226
906642,302,337,251
906658,158,339,257
906674,222,338,191
906689,323,326,248
906705,307,466,234
906721,345,446,245
906737,321,360,281
906753,226,330,249
906769,265,359,264
906784,258,373,272
906800,274,416,332
906816,371,486,375
906832,271,451,362
906848,357,489,280
906863,340,511,369
906879,269,507,293
906895,207,395,272
906911,168,283,237
906927,150,308,209
906943,138,332,262
906958,260,344,222
906974,270,353,260
906990,381,435,285
907006,433,499,365
907022,498,517,456
907037,513,511,489
907053,516,451,508
907069,500,505,510
907085,510,513,496
907101,365,519,472
907117,243,377,243
907132,155,359,223
907148,241,357,176
907164,177,346,229
907180,258,360,270
907196,173,329,291
907211,236,283,240
907227,262,333,202
907243,216,325,239
907259,200,313,264
907275,224,311,209
907291,330,315,197
907306,286,334,177
907322,213,341,225
