22100,545.00
22111,546.00
22121,524.00
22131,523.00
22141,516.00
22151,517.00
22161,520.00
22171,516.00
22181,519.00
22191,514.00
22201,519.00
22211,521.00
22221,529.00
22231,528.00
22241,518.00
22251,519.00
22261,520.00
22271,518.00
22281,517.00
22291,522.00
22301,541.00
22311,554.00
22321,564.00
22331,581.00
22341,586.00
22351,584.00
22361,546.00
22371,500.00
22381,490.00
22396,488.00
22412,501.00
22428,498.00
22444,508.00
22460,472.00
22476,728.00
22491,1024.00
22507,466.00
22523,501.00
22539,508.00
22555,514.00
22570,517.00
22586,522.00
22602,522.00
22618,534.00
22634,537.00
22650,541.00
22665,557.00
22681,576.00
22697,577.00
22713,581.00
22729,569.00
22745,566.00
22760,549.00
22776,535.00
22792,541.00
22808,536.00
22824,542.00
22839,537.00
22855,545.00
22871,542.00
22887,546.00
22903,529.00
22918,542.00
22934,570.00
22950,582.00
22966,590.00
22982,553.00
22998,480.00
23013,468.00
23029,471.00
23045,469.00
23061,475.00
23077,421.00
23092,508.00
23108,936.00
23124,590.00
23140,410.00
23156,447.00
23172,439.00
23187,454.00
23203,459.00
23219,463.00
23235,470.00
23251,476.00
23266,485.00
23282,489.00
23298,510.00
23314,521.00
23330,521.00
23346,523.00
23361,521.00
23377,499.00
23393,493.00
23409,492.00
23425,492.00
23440,493.00
23456,500.00
23472,505.00
23488,509.00
23504,508.00
23520,506.00
23535,512.00
23551,535.00
23567,553.00
23583,576.00
23599,558.00
23614,494.00
23630,480.00
23646,477.00
23662,481.00
23678,483.00
23694,469.00
23709,464.00
23725,810.00
23741,832.00
23757,408.00
23773,468.00
23788,465.00
23804,473.00
23820,477.00
23836,484.00
23852,494.00
23868,507.00
23883,511.00
23899,518.00
23915,531.00
23931,540.00
23947,553.00
23963,542.00
23978,555.00
23994,535.00
24010,521.00
24026,518.00
24042,512.00
24057,508.00
24073,522.00
24089,520.00
24105,530.00
24121,525.00
24137,520.00
24152,523.00
24168,517.00
24184,537.00
24200,559.00
24216,585.00
24231,586.00
24247,516.00
24263,487.00
24279,484.00
24295,487.00
24311,493.00
24326,483.00
24342,459.00
24358,751.00
24374,933.00
24390,410.00
24405,473.00
24421,480.00
24437,482.00
24453,480.00
24469,501.00
24485,497.00
24500,502.00
24516,520.00
24532,529.00
24548,536.00
24564,554.00
24579,555.00
24595,557.00
24611,559.00
24627,545.00
24643,532.00
24659,533.00
24674,528.00
24690,541.00
24706,529.00
24722,536.00
24738,541.00
24753,545.00
24769,545.00
24785,548.00
24801,542.00
24817,543.00
24833,572.00
24848,586.00
24864,617.00
24880,604.00
24896,526.00
24912,518.00
24927,520.00
24943,517.00
24959,525.00
24975,501.00
24991,529.00
25007,922.00
25022,808.00
25038,441.00
25054,507.00
25070,500.00
25086,505.00
25101,512.00
25117,512.00
25133,520.00
25149,523.00
25165,534.00
25181,542.00
25196,554.00
25212,560.00
25228,556.00
25244,559.00
25260,548.00
25275,542.00
25291,523.00
25307,519.00
25323,511.00
25339,520.00
25354,519.00
25370,520.00
25386,524.00
25402,525.00
25418,524.00
25434,525.00
25449,524.00
25465,554.00
25481,568.00
25497,586.00
25513,559.00
25528,500.00
25544,492.00
25560,483.00
25576,486.00
25592,483.00
25608,450.00
25623,525.00
25639,949.00
25655,616.00
25671,423.00
25687,469.00
25703,480.00
25718,475.00
25734,490.00
25750,492.00
25766,499.00
25782,498.00
25797,506.00
25813,519.00
25829,526.00
25845,537.00
25861,536.00
25877,542.00
25892,533.00
25908,517.00
25924,505.00
25940,502.00
25956,497.00
25971,502.00
25987,507.00
26003,511.00
26019,513.00
26035,513.00
26051,507.00
26066,502.00
26081,510.00
26098,521.00
26114,553.00
26130,572.00
26145,561.00
26161,480.00
26177,463.00
26193,471.00
26209,473.00
26225,472.00
26240,464.00
26256,466.00
26272,817.00
26288,835.00
26304,403.00
26319,464.00
26335,465.00
26351,468.00
26367,480.00
26383,484.00
26399,488.00
26414,504.00
26430,506.00
26445,509.00
26462,535.00
26478,548.00
26493,546.00
26509,550.00
26525,543.00
26541,535.00
26557,522.00
26572,518.00
26588,516.00
26604,522.00
26620,517.00
26636,532.00
26652,523.00
26667,523.00
26683,522.00
26699,521.00
26715,530.00
26731,525.00
26746,536.00
26762,569.00
26778,577.00
26794,583.00
26810,537.00
26826,490.00
26841,485.00
26857,496.00
26873,489.00
26889,495.00
26905,447.00
26920,621.00
26936,1024.00
26952,476.00
26968,465.00
26984,474.00
27000,478.00
27015,478.00
27031,492.00
27047,494.00
27063,509.00
27079,510.00
27095,521.00
27110,531.00
27126,549.00
27142,556.00
27158,545.00
27174,543.00
27189,538.00
27205,525.00
27221,521.00
27237,518.00
27253,519.00
27269,519.00
27284,529.00
27300,530.00
27316,529.00
27332,524.00
27348,526.00
27363,518.00
27379,522.00
27394,513.00
27411,530.00
27427,564.00
27443,581.00
27458,582.00
27474,540.00
27490,485.00
27506,487.00
27522,492.00
27537,488.00
27553,489.00
27569,446.00
27585,613.00
27601,1024.00
27617,464.00
27632,469.00
27648,473.00
27664,478.00
27680,487.00
27696,493.00
27711,499.00
27727,505.00
27743,522.00
27759,523.00
27775,550.00
27791,555.00
27806,567.00
27822,554.00
27838,554.00
27854,546.00
27870,531.00
27885,514.00
27901,514.00
27917,514.00
27933,522.00
27949,528.00
27965,524.00
27980,528.00
27996,526.00
28012,524.00
28028,522.00
28044,528.00
28059,516.00
28075,510.00
28091,531.00
28107,562.00
28123,583.00
28139,594.00
28154,549.00
28170,497.00
28186,490.00
28202,489.00
28218,488.00
28233,500.00
28249,449.00
28265,632.00
28281,1024.00
28297,461.00
28313,474.00
28328,485.00
28344,493.00
28360,493.00
28376,502.00
28392,508.00
28407,516.00
28423,524.00
28439,530.00
28455,546.00
28471,558.00
28487,565.00
28502,561.00
28518,567.00
28534,556.00
28550,548.00
28566,534.00
28581,531.00
28597,526.00
28613,535.00
28629,540.00
28645,544.00
28661,544.00
28676,547.00
28692,555.00
28708,536.00
28724,545.00
28740,529.00
28755,547.00
28771,556.00
28787,574.00
28803,594.00
28819,593.00
28835,513.00
28850,498.00
28866,490.00
28882,493.00
28898,498.00
28914,474.00
28929,492.00
28945,846.00
28961,776.00
28977,417.00
28993,485.00
29009,478.00
29024,487.00
29040,493.00
29056,497.00
29072,502.00
29088,512.00
29103,525.00
29119,526.00
29135,534.00
29151,547.00
29167,543.00
29183,554.00
29198,536.00
29214,531.00
29230,517.00
29246,511.00
29262,502.00
29277,519.00
29293,516.00
29309,516.00
29325,523.00
29341,523.00
29357,524.00
29372,522.00
29388,524.00
29404,525.00
29420,548.00
29436,561.00
29451,590.00
29467,569.00
29483,496.00
29499,476.00
29515,481.00
29531,483.00
29546,488.00
29562,462.00
29578,508.00
29594,937.00
29610,649.00
29625,415.00
29641,469.00
29657,465.00
29673,470.00
29689,474.00
29705,485.00
29720,490.00
29736,505.00
29752,510.00
29768,521.00
29784,533.00
29799,537.00
29815,530.00
29831,537.00
29847,522.00
29863,508.00
29879,497.00
29894,499.00
29910,501.00
29926,492.00
29942,497.00
29958,509.00
29973,513.00
29989,510.00
30005,513.00
30021,504.00
30037,505.00
30053,501.00
30068,509.00
30084,534.00
30100,556.00
30116,576.00
30132,565.00
30147,494.00
30163,471.00
30179,478.00
30195,476.00
30211,494.00
30227,462.00
30242,487.00
30258,843.00
30274,805.00
30290,422.00
30306,485.00
30322,475.00
30337,488.00
30353,487.00
30369,496.00
30385,505.00
30401,514.00
30416,522.00
30432,541.00
30448,550.00
30464,552.00
30480,555.00
30495,557.00
30512,556.00
30527,548.00
30543,531.00
30559,520.00
30575,518.00
30590,517.00
30606,524.00
30622,529.00
30638,521.00
30654,529.00
30669,528.00
30685,531.00
30701,529.00
30717,523.00
30733,542.00
30749,565.00
30764,588.00
30780,591.00
30796,534.00
30812,504.00
30828,482.00
30843,496.00
30859,497.00
30875,508.00
30891,444.00
30907,640.00
30923,1024.00
30938,485.00
30954,478.00
30970,485.00
30986,478.00
31002,493.00
31018,495.00
31033,506.00
31049,513.00
31065,513.00
31081,533.00
31097,543.00
31112,549.00
31128,561.00
31144,564.00
31160,561.00
31176,547.00
31192,534.00
31207,523.00
31223,520.00
31239,525.00
31255,514.00
31271,526.00
31286,528.00
31302,530.00
31318,531.00
31334,525.00
31350,525.00
31366,524.00
31381,530.00
31397,557.00
31413,574.00
31429,598.00
31445,566.00
31460,505.00
31476,492.00
31492,488.00
31508,490.00
31524,498.00
31540,475.00
31555,494.00
31571,895.00
31587,768.00
31603,436.00
31619,487.00
31634,478.00
31650,496.00
31666,496.00
31682,506.00
31698,506.00
31714,526.00
31729,526.00
31745,537.00
31761,558.00
31777,567.00
31793,554.00
31808,560.00
31824,556.00
31840,537.00
31856,531.00
31872,516.00
31888,522.00
31903,523.00
31919,526.00
31935,528.00
31951,534.00
31967,537.00
31982,536.00
31998,528.00
32014,533.00
32030,544.00
32046,565.00
32062,596.00
32077,593.00
32093,546.00
32109,504.00
32125,498.00
32141,502.00
32156,507.00
32172,496.00
32188,453.00
32204,649.00
32220,1024.00
936207,519.00
936218,540.00
936228,549.00
936238,566.00
936248,572.00
936258,568.00
936268,534.00
936278,493.00
936288,476.00
936298,472.00
936308,471.00
936435,461.00
936446,464.00
936456,469.00
936466,475.00
936476,478.00
936486,481.00
936496,485.00
936506,482.00
936517,483.00
936635,521.00
936646,518.00
936656,517.00
936666,511.00
936676,501.00
936686,504.00
936696,500.00
936706,508.00
936716,509.00
936726,509.00
936737,513.00
936747,522.00
936757,521.00
936768,520.00
936778,524.00
936788,520.00
936798,521.00
936808,521.00
936818,518.00
936828,516.00
936838,509.00
936848,505.00
936858,508.00
936868,504.00
936878,501.00
936888,504.00
936898,504.00
936908,505.00
936918,505.00
936928,501.00
936938,508.00
936948,512.00
936958,528.00
936968,540.00
936978,552.00
936988,564.00
936998,560.00
937013,505.00
937029,469.00
937045,477.00
937061,472.00
937077,480.00
937093,461.00
937108,480.00
937124,838.00
937140,811.00
937156,394.00
937172,483.00
937188,482.00
937203,489.00
937219,502.00
937235,509.00
937251,507.00
937267,520.00
937282,521.00
937298,540.00
937314,559.00
937330,566.00
937346,561.00
937362,556.00
937377,562.00
937393,541.00
937409,538.00
937425,531.00
937441,522.00
937456,525.00
937472,536.00
937488,535.00
937504,542.00
937520,547.00
937536,538.00
937551,534.00
937567,530.00
937583,531.00
937599,522.00
937615,520.00
937630,521.00
937646,532.00
937662,560.00
937678,588.00
937694,582.00
937710,533.00
937725,488.00
937741,483.00
937757,482.00
937773,482.00
937789,481.00
937804,445.00
937820,696.00
937836,1006.00
937852,408.00
937868,462.00
937884,476.00
937899,478.00
937915,496.00
937931,502.00
937947,506.00
937963,513.00
937978,520.00
937994,534.00
938010,549.00
938026,561.00
938042,564.00
938058,560.00
938073,557.00
938089,553.00
938105,534.00
938121,529.00
938137,528.00
938152,530.00
938168,530.00
938184,536.00
938200,548.00
938216,549.00
938232,540.00
938247,535.00
938263,533.00
938279,522.00
938295,529.00
938311,524.00
938326,524.00
938342,524.00
938358,522.00
938374,523.00
938390,524.00
938406,522.00
938421,533.00
938437,559.00
938453,579.00
938469,591.00
938485,562.00
938501,506.00
938516,494.00
938532,492.00
938548,496.00
938564,496.00
938580,450.00
938595,608.00
938611,1024.00
938627,488.00
938643,453.00
938659,481.00
938675,478.00
938690,487.00
938706,490.00
938722,494.00
938738,500.00
938754,508.00
938769,519.00
938785,530.00
938801,545.00
938817,556.00
938833,557.00
938849,558.00
938864,548.00
938880,535.00
938896,528.00
938912,518.00
938928,513.00
938943,511.00
938959,513.00
938975,513.00
938991,521.00
939007,521.00
939023,514.00
939038,519.00
939054,512.00
939070,510.00
939086,509.00
939102,508.00
939117,512.00
939133,506.00
939149,508.00
939165,505.00
939181,506.00
939197,501.00
939212,497.00
939228,492.00
939244,510.00
939260,521.00
939276,537.00
939292,585.00
939307,562.00
939323,488.00
939339,487.00
939355,473.00
939371,464.00
939386,445.00
939402,400.00
939418,513.00
939434,930.00
939450,482.00
939466,372.00
939481,418.00
939497,444.00
939513,462.00
939529,475.00
939545,486.00
939560,490.00
939576,490.00
939592,504.00
939608,522.00
939624,534.00
939640,544.00
939655,538.00
939671,540.00
939687,536.00
939703,520.00
939719,509.00
939734,509.00
939750,496.00
939766,497.00
939782,494.00
939798,477.00
939814,452.00
939829,434.00
939845,411.00
939861,427.00
939877,432.00
939893,418.00
939908,429.00
939924,452.00
939940,462.00
939956,480.00
939972,488.00
939988,513.00
940003,513.00
940019,530.00
940035,566.00
940051,602.00
940067,630.00
940082,625.00
940098,578.00
940114,548.00
940130,552.00
940146,542.00
940162,487.00
940177,496.00
940193,504.00
940209,833.00
940225,772.00
940241,433.00
940256,508.00
940272,485.00
940288,494.00
940304,516.00
940320,556.00
940336,536.00
940351,531.00
940367,553.00
940383,566.00
940399,606.00
940415,620.00
940430,615.00
940446,625.00
940462,669.00
940478,668.00
940494,668.00
940510,704.00
940525,690.00
940541,660.00
940557,633.00
940573,628.00
940589,598.00
940604,594.00
940620,566.00
940636,554.00
940652,538.00
940668,554.00
940684,550.00
940699,549.00
940715,560.00
940731,553.00
940747,538.00
940763,531.00
940778,536.00
940794,536.00
940810,545.00
940826,529.00
940842,475.00
940858,457.00
940873,437.00
940889,434.00
940905,441.00
940921,421.00
940937,669.00
940953,916.00
940968,397.00
940984,462.00
941000,464.00
941016,440.00
941032,439.00
941047,437.00
941063,447.00
941079,465.00
941095,486.00
941111,496.00
941127,522.00
941142,550.00
941158,584.00
941174,601.00
941190,604.00
941206,603.00
941221,596.00
941237,584.00
941253,579.00
941269,580.00
941285,579.00
941301,584.00
941316,593.00
941332,585.00
941348,578.00
941364,568.00
941380,552.00
941395,540.00
941411,528.00
941427,526.00
941443,526.00
941459,547.00
941475,578.00
941490,605.00
941506,592.00
941522,531.00
941538,505.00
941554,504.00
941569,508.00
941585,505.00
941601,471.00
941617,552.00
941633,966.00
941649,637.00
941664,427.00
941680,481.00
941696,486.00
941712,492.00
941728,492.00
941743,490.00
941759,501.00
941775,504.00
941791,506.00
941807,529.00
941823,525.00
941838,526.00
941854,516.00
941870,493.00
941886,492.00
941902,462.00
941917,417.00
941933,397.00
941949,382.00
941965,367.00
941981,348.00
941997,342.00
942012,370.00
942028,381.00
942044,365.00
942060,330.00
942076,321.00
942091,337.00
942107,413.00
942123,472.00
942139,470.00
942155,434.00
942171,403.00
942186,441.00
942202,474.00
942218,500.00
942234,456.00
942250,441.00
942265,681.00
942281,967.00
942297,452.00
942313,483.00
942329,483.00
942345,460.00
942360,396.00
942376,319.00
942392,244.00
942408,178.00
942424,62.00
942439,24.00
942455,13.00
942471,12.00
942487,12.00
942503,14.00
942519,14.00
942534,92.00
942550,676.00
942566,506.00
942582,473.00
942598,399.00
942613,508.00
942629,450.00
942645,556.00
942661,478.00
942677,261.00
942693,553.00
942708,784.00
942724,609.00
942740,145.00
942756,162.00
942772,346.00
942787,306.00
942803,451.00
942819,577.00
942835,541.00
942851,470.00
942867,678.00
942882,809.00
942898,237.00
942914,339.00
942930,402.00
942946,394.00
942961,216.00
942977,694.00
942993,690.00
943009,380.00
943025,135.00
943041,231.00
943056,16.00
943072,77.00
943088,536.00
943104,245.00
943120,14.00
943135,392.00
943151,889.00
943167,948.00
943183,190.00
943199,360.00
943215,595.00
943230,564.00
943246,535.00
943262,705.00
943278,436.00
943294,864.00
943309,973.00
943325,836.00
943341,386.00
943357,252.00
943373,627.00
943389,657.00
943404,597.00
943420,832.00
943436,1024.00
943452,1024.00
943468,1011.00
943483,900.00
943499,759.00
943515,1024.00
943531,1024.00
943547,886.00
943563,752.00
943578,750.00
943594,276.00
943610,163.00
943626,72.00
943642,530.00
943657,721.00
943673,16.00
943689,619.00
943705,788.00
943721,781.00
943737,617.00
943752,297.00
943768,529.00
943784,381.00
943800,621.00
943816,733.00
943832,511.00
943847,101.00
943863,14.00
943879,82.00
943895,482.00
943911,317.00
943926,600.00
943942,703.00
943958,1024.00
943974,1024.00
943990,1024.00
944006,608.00
944021,508.00
944037,976.00
944053,732.00
944069,821.00
944085,793.00
944101,606.00
944116,348.00
944132,18.00
944148,15.00
944164,15.00
944180,607.00
944195,1024.00
944211,182.00
944227,398.00
944243,1024.00
944259,1024.00
944275,613.00
944290,403.00
944306,501.00
944322,1024.00
944338,1024.00
944354,998.00
944369,720.00
944385,126.00
944401,13.00
944417,16.00
944433,16.00
944449,17.00
944464,317.00
944480,761.00
944496,1024.00
944512,1024.00
944528,1024.00
944543,550.00
944559,331.00
944575,860.00
944591,578.00
944607,1024.00
944623,926.00
944638,735.00
944654,137.00
944670,21.00
944686,17.00
944702,17.00
944717,414.00
944733,554.00
944749,473.00
944765,664.00
944781,849.00
944797,902.00
944812,691.00
944828,687.00
944844,586.00
944860,1002.00
944876,1023.00
944891,991.00
944907,800.00
944923,401.00
944939,69.00
944955,15.00
944971,18.00
944986,18.00
945002,704.00
945018,245.00
945034,484.00
945050,812.00
945065,733.00
945081,747.00
945097,470.00
945113,449.00
945129,805.00
945145,1024.00
945160,1024.00
945176,1024.00
945192,846.00
945208,320.00
945224,20.00
945239,20.00
945255,17.00
945271,248.00
945287,590.00
945303,849.00
945319,836.00
945334,951.00
945350,1024.00
945366,1024.00
945382,1012.00
945398,139.00
945414,109.00
945429,860.00
945445,1018.00
945461,814.00
945477,594.00
945493,588.00
945508,14.00
945524,17.00
945540,13.00
945556,250.00
945572,656.00
945588,520.00
945603,426.00
945619,704.00
945635,1024.00
945651,973.00
945667,813.00
945682,897.00
947027,524.00
947038,415.00
947048,282.00
947059,25.00
947069,31.00
947195,195.00
947206,655.00
947216,421.00
948334,15.00
948345,16.00
948355,14.00
948365,13.00
948375,15.00
948385,129.00
948395,718.00
948405,773.00
948415,781.00
948425,826.00
948435,1024.00
948445,912.00
948455,862.00
948465,1024.00
948475,1014.00
948485,776.00
948495,283.00
948505,430.00
948515,664.00
948525,769.00
948535,498.00
948545,376.00
948555,178.00
948565,15.00
948575,16.00
948585,13.00
948595,16.00
948605,15.00
948615,14.00
948625,14.00
948635,18.00
948645,175.00
948655,528.00
948665,739.00
948675,930.00
948685,1024.00
948695,1024.00
948705,1024.00
948715,1024.00
948725,1024.00
948735,1024.00
948745,1024.00
948755,1024.00
948765,1024.00
948775,973.00
948785,638.00
948795,651.00
948805,1024.00
948815,1024.00
948825,722.00
948835,508.00
948845,494.00
948855,330.00
948865,163.00
948878,54.00
948894,17.00
948910,17.00
948926,437.00
948941,283.00
948957,234.00
948973,363.00
948989,919.00
949005,1024.00
949020,1024.00
949036,1024.00
949052,1024.00
949068,1024.00
949084,617.00
949100,714.00
949115,447.00
949131,337.00
949147,262.00
949163,13.00
949179,13.00
949195,12.00
949210,14.00
949226,16.00
949242,58.00
949258,963.00
949274,915.00
949289,1002.00
949305,1024.00
949321,1024.00
949337,1024.00
949353,1024.00
949369,1024.00
949384,1024.00
949400,617.00
949416,568.00
949432,720.00
949448,681.00
949463,463.00
949479,271.00
949495,147.00
949511,115.00
949527,406.00
949543,631.00
949558,666.00
949574,1005.00
949590,890.00
949606,955.00
949622,1024.00
949637,528.00
949653,1024.00
949669,1024.00
949685,501.00
949701,663.00
949717,754.00
949732,22.00
949748,18.00
949764,18.00
949780,16.00
949796,15.00
949811,12.00
949827,15.00
949843,15.00
949859,46.00
949875,430.00
949891,818.00
949906,834.00
949922,576.00
949938,1024.00
949954,1024.00
949970,1024.00
949985,1024.00
950001,1024.00
950017,893.00
950033,801.00
950049,804.00
950065,715.00
950080,415.00
950096,184.00
950112,15.00
950128,15.00
950144,15.00
950159,900.00
950175,1024.00
950191,733.00
950207,537.00
950223,471.00
950239,514.00
950254,942.00
950270,1024.00
950286,149.00
950302,163.00
950318,20.00
950333,18.00
950349,180.00
950365,17.00
950383,14.00
950397,12.00
950413,14.00
950428,13.00
950444,270.00
950460,442.00
950476,394.00
950492,837.00
950508,1024.00
950523,1024.00
950539,999.00
950555,917.00
950571,760.00
950587,734.00
950602,1024.00
950618,1024.00
950634,634.00
950650,817.00
950666,358.00
950682,392.00
950697,344.00
950713,267.00
950729,13.00
950745,13.00
950761,13.00
950776,257.00
950792,604.00
950808,703.00
950824,509.00
950840,602.00
950856,1024.00
950871,1024.00
950887,1024.00
950903,490.00
950919,296.00
950935,451.00
950951,449.00
950966,99.00
950982,17.00
950998,16.00
951014,17.00
951030,14.00
951045,13.00
951061,56.00
951077,330.00
951093,556.00
951109,868.00
951125,1024.00
951140,896.00
951156,1024.00
951172,905.00
951188,704.00
951204,624.00
951219,952.00
951235,1006.00
951251,882.00
951267,442.00
951283,15.00
951299,15.00
951314,164.00
951330,375.00
951346,493.00
951362,601.00
951378,1024.00
951393,1024.00
951409,1024.00
951425,1024.00
951441,1024.00
951457,1024.00
951473,137.00
951488,521.00
951504,127.00
951520,29.00
951536,22.00
951552,16.00
951567,13.00
951583,16.00
951599,14.00
951615,18.00
951631,15.00
951647,28.00
951662,859.00
951678,1024.00
951694,1024.00
951710,1024.00
951726,1024.00
951741,1024.00
951757,1024.00
951773,989.00
951789,355.00
951805,550.00
951821,394.00
951836,550.00
951852,459.00
951868,501.00
951884,217.00
951900,15.00
951916,460.00
951931,987.00
951947,333.00
951963,247.00
951979,498.00
951995,835.00
952010,744.00
952026,1024.00
952042,394.00
952058,517.00
952074,196.00
952089,501.00
952105,978.00
952121,938.00
952137,477.00
952153,421.00
952169,17.00
952184,16.00
952200,14.00
952216,14.00
952232,15.00
952248,261.00
952264,638.00
952279,1024.00
952295,1024.00
952311,1024.00
952327,1024.00
952343,1024.00
952358,1024.00
952374,1024.00
952390,248.00
952406,290.00
952422,608.00
952438,324.00
952453,73.00
952469,16.00
952485,13.00
952501,13.00
952517,12.00
952532,104.00
952548,417.00
952564,471.00
952580,698.00
952596,1024.00
952612,1024.00
952627,1024.00
952643,1024.00
952659,1024.00
952675,804.00
952691,426.00
952706,325.00
952722,357.00
952738,173.00
952754,364.00
952770,181.00
952786,610.00
952801,490.00
952817,316.00
952833,596.00
952849,627.00
952865,653.00
952881,296.00
952896,17.00
952912,1024.00
952928,693.00
952944,500.00
952960,507.00
952975,842.00
952991,320.00
953007,204.00
953023,38.00
953039,127.00
953055,270.00
953070,92.00
953086,15.00
953102,40.00
953118,444.00
953134,195.00
953149,330.00
953165,772.00
953181,1024.00
953197,1024.00
953213,1024.00
953229,1024.00
953244,1024.00
953260,1024.00
953276,514.00
953292,823.00
953308,391.00
953323,176.00
953339,16.00
953355,17.00
953371,13.00
953387,12.00
953403,14.00
953418,16.00
953434,74.00
953450,679.00
953466,814.00
953482,1024.00
953497,1024.00
953513,1024.00
953529,1024.00
953545,1024.00
953561,1024.00
953577,960.00
953592,616.00
953608,492.00
953624,466.00
953640,556.00
953656,15.00
953671,14.00
953687,15.00
953703,16.00
953719,499.00
953735,598.00
953751,648.00
953766,708.00
953782,1024.00
953798,1024.00
953814,1024.00
953830,1024.00
953846,1024.00
953861,1024.00
953877,1024.00
953893,535.00
953909,331.00
953925,84.00
953940,15.00
953956,16.00
953972,16.00
953988,15.00
954004,14.00
954020,16.00
954035,14.00
954051,869.00
954067,1024.00
954083,1024.00
954099,1024.00
954114,1024.00
954130,1024.00
954146,1024.00
954162,834.00
954178,618.00
954194,123.00
954209,98.00
954225,210.00
954241,16.00
954257,14.00
954273,14.00
954288,16.00
954304,14.00
954320,13.00
954336,519.00
954352,1024.00
954368,1024.00
954383,1024.00
954399,1024.00
954415,1024.00
954431,1024.00
954447,957.00
954462,602.00
954478,621.00
954494,802.00
954510,17.00
954526,15.00
954542,14.00
954557,16.00
954573,18.00
954589,14.00
954605,14.00
954621,136.00
954637,702.00
954652,1024.00
954668,1024.00
954684,1024.00
954700,1024.00
954716,800.00
954731,747.00
954747,895.00
954763,930.00
954779,681.00
954795,284.00
954811,31.00
954826,15.00
954842,15.00
954858,16.00
954874,16.00
954890,14.00
954905,15.00
954921,687.00
954937,514.00
954953,747.00
954969,955.00
954985,1024.00
955000,1024.00
955016,1024.00
955032,1024.00
955048,1024.00
955064,1024.00
955079,1024.00
955095,1024.00
955111,838.00
955127,792.00
955143,196.00
955159,16.00
955174,16.00
955190,16.00
955206,18.00
955222,19.00
955238,17.00
955253,266.00
955269,520.00
955285,895.00
955301,1024.00
955317,1024.00
955333,1024.00
955348,1024.00
955364,837.00
955380,524.00
955396,306.00
955412,132.00
955427,16.00
955443,20.00
955459,18.00
955475,15.00
955491,16.00
955507,15.00
955522,16.00
955538,17.00
955554,14.00
955570,688.00
955586,1024.00
955602,1024.00
955617,1024.00
955633,1024.00
955649,1024.00
955665,1024.00
955681,572.00
955696,60.00
955712,159.00
955728,138.00
955744,369.00
955760,772.00
955776,16.00
955791,18.00
955807,18.00
955823,19.00
955839,255.00
955855,596.00
955870,688.00
955886,954.00
955902,1024.00
955918,1024.00
955934,1024.00
955950,1024.00
955965,1024.00
955981,737.00
955997,750.00
956013,725.00
956029,535.00
956044,345.00
956060,16.00
956076,16.00
956092,15.00
956108,15.00
956124,16.00
956139,14.00
956155,691.00
956171,866.00
956187,750.00
956203,1024.00
956218,1024.00
956234,1024.00
956250,811.00
956266,397.00
956282,44.00
956298,186.00
956313,249.00
956329,16.00
956345,17.00
956361,238.00
956377,15.00
956392,16.00
956408,17.00
956424,153.00
956440,880.00
956456,1024.00
956472,1024.00
956487,1024.00
956503,1024.00
956519,1024.00
956535,674.00
956551,394.00
956566,329.00
956582,577.00
956598,859.00
956614,224.00
956630,120.00
956646,86.00
956661,58.00
956677,16.00
956693,12.00
956709,348.00
956725,715.00
956741,838.00
956756,1024.00
956772,1024.00
956788,1014.00
956804,1024.00
956820,986.00
956835,1024.00
956851,843.00
956867,1024.00
956883,1024.00
956899,1024.00
956915,706.00
956930,596.00
956946,689.00
956962,751.00
956978,679.00
956994,547.00
957009,991.00
957025,1024.00
957041,864.00
957057,608.00
957073,378.00
957089,210.00
957104,17.00
957120,216.00
957136,414.00
957152,733.00
957168,833.00
957183,784.00
957199,760.00
957215,884.00
957231,1008.00
957247,1000.00
957263,884.00
957278,842.00
957294,831.00
957310,577.00
957326,296.00
957342,212.00
957357,15.00
957373,15.00
957389,16.00
957405,14.00
957421,16.00
957437,538.00
957452,156.00
957468,667.00
960631,1024.00
960642,1024.00
960652,315.00
960662,18.00
960672,22.00
960682,20.00
960692,22.00
960702,577.00
960712,732.00
960722,1024.00
960732,1024.00
960871,1024.00
960881,1024.00
960891,776.00
960901,954.00
960911,894.00
960921,770.00
960932,310.00
960942,17.00
960952,14.00
960962,15.00
960972,14.00
961181,1024.00
961192,1024.00
961202,1024.00
961212,1009.00
961223,516.00
961234,19.00
961244,19.00
961254,19.00
961264,19.00
961274,18.00
961284,44.00
961294,521.00
961304,394.00
961314,297.00
961324,102.00
961334,352.00
961344,660.00
961354,798.00
961364,630.00
961374,580.00
961384,835.00
961394,1024.00
961404,1024.00
961414,773.00
961424,276.00
961434,878.00
961444,1024.00
961454,1024.00
961464,1024.00
961474,1024.00
961484,1015.00
961494,466.00
961504,244.00
961514,31.00
961524,49.00
961534,424.00
961544,842.00
961554,892.00
961564,520.00
961574,262.00
961584,247.00
961594,675.00
961604,1024.00
961614,1024.00
961624,1024.00
961634,1024.00
961644,1024.00
961654,1024.00
961664,1024.00
961676,1024.00
961692,1024.00
961708,822.00
961724,220.00
961740,712.00
961755,1024.00
961771,780.00
961787,19.00
961803,19.00
961819,849.00
961835,485.00
961850,497.00
961866,753.00
961882,559.00
961898,417.00
961914,139.00
961929,17.00
961945,205.00
961961,490.00
961977,427.00
961993,609.00
962009,127.00
962024,14.00
962040,17.00
962056,17.00
962072,18.00
962088,20.00
962103,386.00
962119,281.00
962135,72.00
962151,562.00
962167,985.00
962183,1024.00
962198,1024.00
962214,1024.00
962230,1024.00
962246,1024.00
962262,1024.00
962277,684.00
962293,63.00
962309,147.00
962325,885.00
962341,876.00
962357,607.00
962372,109.00
962388,220.00
962404,264.00
962420,553.00
962436,620.00
962451,524.00
962467,665.00
962483,867.00
962499,691.00
962515,453.00
962531,345.00
962546,136.00
962562,14.00
962578,13.00
962594,1024.00
962610,1024.00
962626,874.00
962641,474.00
962657,469.00
962673,277.00
962689,344.00
962705,464.00
962720,673.00
962736,859.00
962752,1024.00
962768,1024.00
962784,622.00
962800,644.00
962815,534.00
962831,377.00
962847,207.00
962863,652.00
962879,1024.00
962894,1024.00
962910,502.00
962926,641.00
962942,765.00
962958,754.00
962974,1024.00
962989,948.00
963005,1024.00
963021,1024.00
963037,1024.00
963053,429.00
963068,36.00
963084,213.00
963100,262.00
963116,325.00
963132,15.00
963148,14.00
963163,525.00
963179,168.00
963195,206.00
963211,14.00
963227,163.00
963242,740.00
963258,525.00
963274,1024.00
963290,789.00
963306,811.00
963322,408.00
963337,436.00
963353,525.00
963369,504.00
963385,320.00
963401,14.00
963416,15.00
963432,14.00
963448,536.00
963464,837.00
963480,331.00
963496,13.00
963511,15.00
963527,557.00
963543,1024.00
963559,1024.00
963575,1024.00
963590,1024.00
963606,826.00
963622,624.00
963638,534.00
963654,548.00
963670,482.00
963685,273.00
963701,106.00
963717,13.00
963733,14.00
963749,14.00
963764,14.00
963780,156.00
963796,361.00
963812,184.00
963828,238.00
963844,233.00
963859,486.00
963875,1024.00
963891,1024.00
963907,1024.00
963923,1024.00
963938,1024.00
963954,1024.00
963970,939.00
963986,226.00
964002,16.00
964018,16.00
964033,14.00
964049,13.00
964065,15.00
964081,30.00
964097,868.00
964112,987.00
964128,1024.00
964144,1015.00
964160,701.00
964176,921.00
964192,1024.00
964208,1024.00
964223,1024.00
964239,836.00
964255,529.00
964271,117.00
964287,14.00
964302,16.00
964318,17.00
964334,15.00
964350,14.00
964366,164.00
964381,490.00
964397,544.00
964413,381.00
964429,457.00
964445,804.00
964461,998.00
964476,1024.00
964492,1024.00
964508,1024.00
964524,1024.00
964540,996.00
964555,221.00
964571,17.00
964587,19.00
964603,16.00
964619,18.00
964635,16.00
964650,15.00
964666,967.00
964682,1024.00
964698,1024.00
964714,1024.00
964729,1024.00
964745,1024.00
964761,1024.00
964777,1024.00
964793,473.00
964809,377.00
964824,24.00
964840,16.00
964856,15.00
964872,18.00
964888,16.00
964904,15.00
964919,18.00
964935,15.00
964951,571.00
964967,1024.00
964983,1024.00
964998,1024.00
965014,1024.00
965030,631.00
965046,585.00
965062,221.00
965078,271.00
965093,213.00
965109,17.00
965125,18.00
965141,15.00
965157,16.00
965173,14.00
965188,15.00
965204,17.00
965220,435.00
965236,867.00
965252,1020.00
965267,1024.00
965283,1024.00
965299,1024.00
965315,1024.00
965331,1024.00
965347,929.00
965362,1024.00
965378,1024.00
965394,850.00
965410,824.00
965426,582.00
965441,88.00
965457,141.00
965473,358.00
965489,637.00
965505,12.00
965521,10.00
965536,12.00
965552,602.00
965568,654.00
965584,1024.00
965600,1024.00
965615,1014.00
965631,24.00
965647,408.00
965663,638.00
965679,758.00
965695,414.00
965710,76.00
965726,19.00
965742,445.00
965758,1024.00
965774,682.00
965789,892.00
965805,1024.00
965821,1024.00
965837,1024.00
965853,1005.00
965869,1024.00
965884,1024.00
965900,1024.00
965916,1024.00
965932,1024.00
965948,912.00
965963,633.00
965979,854.00
965995,564.00
966011,147.00
966027,17.00
966043,13.00
966058,15.00
966074,16.00
966090,680.00
966106,1024.00
966122,930.00
966137,452.00
966153,18.00
966169,195.00
966185,447.00
966201,795.00
966217,257.00
966232,505.00
966248,464.00
966264,298.00
966280,21.00
966296,21.00
966311,19.00
966327,16.00
966343,21.00
966359,331.00
966375,569.00
966391,897.00
966406,1024.00
966422,1024.00
966438,1024.00
966454,1024.00
966470,1024.00
966486,1024.00
966501,1024.00
966517,1024.00
966533,1024.00
966549,1024.00
966565,532.00
966580,176.00
966596,18.00
966612,18.00
966628,18.00
966644,16.00
966660,15.00
966675,55.00
966691,834.00
966707,1024.00
966723,961.00
966739,669.00
966754,396.00
966770,354.00
966786,552.00
966802,886.00
966818,770.00
966834,495.00
966849,76.00
966865,19.00
966881,68.00
966897,548.00
966913,16.00
966929,15.00
966944,133.00
966960,487.00
966976,1024.00
966992,1024.00
967008,1024.00
967023,1024.00
967039,986.00
967055,859.00
967071,530.00
967087,814.00
967103,805.00
967118,69.00
967134,15.00
967150,25.00
967166,186.00
967182,342.00
967197,79.00
967213,121.00
967229,45.00
967245,298.00
967261,1024.00
967277,795.00
967292,1024.00
967308,1024.00
967324,1024.00
967340,1024.00
967356,1024.00
967372,1024.00
967387,432.00
967403,22.00
967419,21.00
967435,16.00
967451,15.00
967466,475.00
967482,997.00
967498,233.00
967514,14.00
967530,292.00
967546,612.00
967561,1024.00
967577,1024.00
967593,1024.00
967609,562.00
967625,625.00
967640,289.00
967656,480.00
967672,498.00
967688,300.00
967704,255.00
967720,13.00
967735,102.00
967751,415.00
967767,422.00
967783,146.00
967799,185.00
967814,15.00
967830,133.00
967846,481.00
967862,1024.00
967878,1024.00
967894,1024.00
967909,896.00
967925,1024.00
967941,1024.00
967957,1024.00
967973,1016.00
967988,738.00
968004,370.00
968020,14.00
968036,398.00
968052,111.00
968068,14.00
968083,236.00
968099,656.00
968115,1024.00
968131,1024.00
968147,1024.00
968162,1024.00
968178,1024.00
968194,1024.00
968210,960.00
968226,1009.00
968242,936.00
968257,939.00
968273,17.00
968289,16.00
968305,15.00
968321,14.00
968336,16.00
968352,14.00
968368,16.00
968384,320.00
968400,885.00
968416,997.00
968431,1024.00
968447,1024.00
968463,1024.00
968479,1024.00
968495,1024.00
968511,1024.00
968526,1024.00
968542,516.00
968558,21.00
968574,17.00
968590,16.00
968605,19.00
968621,18.00
968637,16.00
968653,19.00
968669,16.00
968685,99.00
968700,1024.00
968716,1024.00
968732,1024.00
968748,1024.00
968764,1024.00
968779,17.00
968795,432.00
968811,590.00
968827,293.00
968843,21.00
968859,12.00
968874,13.00
968890,15.00
968906,15.00
968922,15.00
968938,15.00
968954,15.00
968969,79.00
968985,50.00
969001,837.00
969017,1024.00
969033,1024.00
969048,1024.00
969064,1024.00
969080,1024.00
969096,1024.00
969112,938.00
969128,386.00
969143,99.00
969159,16.00
969175,18.00
969191,14.00
969207,15.00
969222,13.00
969238,16.00
969254,12.00
969270,663.00
969286,1024.00
969302,1024.00
969317,1024.00
969333,1024.00
969349,1024.00
969365,1024.00
969381,1024.00
969396,1024.00
969412,1024.00
969428,89.00
969444,15.00
969460,15.00
969476,14.00
969491,17.00
969507,15.00
969523,15.00
969539,12.00
969555,14.00
969570,10.00
969586,10.00
969602,151.00
969618,1024.00
969634,1024.00
969650,1024.00
969665,1024.00
969681,674.00
969697,498.00
969713,495.00
969729,17.00
969745,14.00
969760,16.00
969776,12.00
969792,15.00
969808,14.00
969824,87.00
969840,585.00
969855,754.00
969871,1022.00
969887,1024.00
969903,1024.00
969919,1024.00
969934,774.00
969950,965.00
969966,1024.00
969982,1024.00
969998,1024.00
970013,945.00
970029,444.00
970045,43.00
970061,14.00
970077,14.00
970093,13.00
970108,9.00
971632,664.00
971642,1024.00
971652,1024.00
971662,1024.00
971794,15.00
971805,15.00
971815,12.00
971825,14.00
971835,12.00
971845,14.00
971855,13.00
971865,13.00
971875,13.00
971885,15.00
971895,129.00
971905,301.00
971915,453.00
971925,615.00
972095,504.00
972106,505.00
972116,449.00
972126,379.00
972136,351.00
972146,469.00
972156,593.00
972166,654.00
972176,915.00
972186,979.00
972196,840.00
972206,552.00
972216,279.00
972226,152.00
972236,141.00
972246,245.00
972256,153.00
972266,186.00
972276,466.00
972286,990.00
972296,1024.00
972306,1024.00
972316,1024.00
972326,1024.00
972336,1024.00
972346,1024.00
972356,854.00
972366,317.00
972376,21.00
972386,17.00
972396,17.00
972406,172.00
972416,786.00
972426,645.00
972436,433.00
972446,389.00
972456,500.00
972466,632.00
972476,763.00
972486,866.00
972496,931.00
972506,1024.00
972516,1024.00
972526,909.00
972536,536.00
972546,673.00
972556,560.00
972566,487.00
972576,465.00
972586,513.00
972596,339.00
972606,15.00
972616,14.00
972626,14.00
972640,15.00
972655,14.00
972671,629.00
972687,929.00
972703,740.00
972719,700.00
972735,381.00
972750,14.00
972766,163.00
972782,713.00
972798,642.00
972814,41.00
972829,246.00
972845,278.00
972861,13.00
972877,13.00
972893,148.00
972909,250.00
972924,223.00
972940,206.00
972956,349.00
972972,435.00
972988,619.00
973003,930.00
973019,870.00
973035,837.00
973051,736.00
973067,1024.00
973083,1024.00
973098,317.00
973114,18.00
973130,13.00
973146,16.00
973162,12.00
973177,12.00
973193,14.00
973209,16.00
973225,186.00
973241,401.00
973257,708.00
973272,358.00
973288,242.00
973304,897.00
973320,1024.00
973336,1024.00
973352,591.00
973367,986.00
973383,1024.00
973399,1006.00
973415,557.00
973431,273.00
973446,213.00
973462,43.00
973478,48.00
973494,15.00
973510,14.00
973526,679.00
973541,1024.00
973557,809.00
973573,810.00
973589,1024.00
973605,1024.00
973620,1024.00
973636,1024.00
973652,670.00
973668,592.00
973684,243.00
973700,523.00
973715,609.00
973731,714.00
973747,434.00
973763,187.00
973779,583.00
973794,658.00
973810,733.00
973826,922.00
973842,958.00
973858,762.00
973874,1024.00
973889,640.00
973905,894.00
973921,120.00
973937,18.00
973953,16.00
973968,15.00
973984,14.00
974000,16.00
974016,14.00
974032,16.00
974048,16.00
974063,545.00
974079,987.00
974095,691.00
974111,1024.00
974127,1024.00
974142,1024.00
974158,1024.00
974174,1024.00
974190,603.00
974206,360.00
974222,241.00
974237,19.00
974253,26.00
974269,1024.00
974285,1024.00
974301,15.00
974317,31.00
974332,585.00
974348,411.00
974364,426.00
974380,102.00
974396,389.00
974411,1024.00
974427,1024.00
974443,306.00
974459,1024.00
974475,825.00
974491,389.00
974506,298.00
974522,197.00
974538,498.00
974554,667.00
974570,585.00
974585,356.00
974601,145.00
974617,45.00
974633,752.00
974649,1018.00
974665,654.00
974680,812.00
974696,975.00
974712,811.00
974728,678.00
974744,751.00
974760,545.00
974775,20.00
974791,18.00
974807,643.00
974823,386.00
974839,603.00
974854,472.00
974870,405.00
974886,540.00
974902,774.00
974918,819.00
974934,14.00
974949,13.00
974965,458.00
974981,1024.00
974997,1024.00
975013,1024.00
975028,15.00
975044,18.00
975060,19.00
975076,15.00
975092,15.00
975108,14.00
975123,14.00
975139,41.00
975155,339.00
975171,127.00
975187,439.00
975203,703.00
975218,452.00
975234,592.00
975250,1024.00
975266,1024.00
975282,1024.00
975297,1024.00
975313,522.00
975329,279.00
975345,18.00
975361,346.00
975377,1024.00
975392,1024.00
975408,694.00
975424,843.00
975440,963.00
975456,913.00
975471,949.00
975487,745.00
975503,530.00
975519,768.00
975535,641.00
975551,1024.00
975566,1024.00
975582,399.00
975598,21.00
975614,18.00
975630,14.00
975645,17.00
975661,68.00
975677,639.00
975693,677.00
975709,566.00
975725,417.00
975740,889.00
975756,903.00
975772,528.00
975788,709.00
975804,906.00
975819,509.00
975835,1024.00
975851,1024.00
975867,1024.00
975883,1024.00
975899,21.00
975914,22.00
975930,17.00
975946,645.00
975962,485.00
975978,788.00
975993,809.00
976009,662.00
976025,886.00
976041,1024.00
976057,882.00
976073,747.00
976088,397.00
976104,782.00
976120,689.00
976136,620.00
976152,693.00
976167,288.00
976183,536.00
976199,249.00
976215,14.00
976231,13.00
976247,15.00
976262,721.00
976278,832.00
976294,809.00
976310,847.00
976326,567.00
976341,271.00
976357,615.00
976373,589.00
976389,384.00
976405,1024.00
976421,1016.00
976436,705.00
976452,682.00
976468,574.00
976484,294.00
976500,21.00
976515,17.00
976531,19.00
976547,562.00
976563,783.00
976579,813.00
976595,783.00
976610,807.00
976626,1024.00
976642,866.00
976658,846.00
976674,521.00
976689,1024.00
976705,1024.00
976721,1024.00
976737,321.00
976753,238.00
976769,152.00
976784,45.00
976800,13.00
976816,12.00
976832,117.00
976848,1024.00
976863,1024.00
976879,1024.00
976895,1024.00
976911,544.00
976927,449.00
976943,373.00
976958,426.00
976974,340.00
976990,14.00
977006,522.00
977022,976.00
977037,353.00
977053,674.00
977069,436.00
977085,209.00
977101,476.00
977117,843.00
977132,828.00
977148,693.00
977164,188.00
977180,166.00
977196,512.00
977211,1024.00
977227,703.00
977243,725.00
977259,667.00
977275,692.00
977291,15.00
977306,316.00
977322,710.00
977338,117.00
977354,364.00
977370,528.00
977386,206.00
977401,572.00
977417,763.00
977433,934.00
977449,1024.00
977465,1024.00
977480,1024.00
977496,885.00
977512,825.00
977528,501.00
977544,277.00
977560,370.00
977575,565.00
977591,832.00
977607,615.00
977623,460.00
977639,84.00
977654,81.00
977670,660.00
977686,924.00
977702,1024.00
977718,1024.00
977734,1024.00
977749,963.00
977765,512.00
977781,220.00
977797,13.00
977813,110.00
977828,568.00
977844,394.00
977860,187.00
977876,504.00
977892,353.00
977908,20.00
977923,420.00
977939,581.00
977955,276.00
977971,458.00
977987,574.00
978002,715.00
978018,718.00
978034,888.00
978050,774.00
978066,908.00
978082,1005.00
978097,1024.00
978113,924.00
978129,617.00
978145,559.00
978161,332.00
978176,411.00
978192,540.00
978208,303.00
978224,618.00
978240,594.00
978256,91.00
978271,374.00
978287,801.00
978303,614.00
978319,366.00
978335,461.00
978350,872.00
978366,533.00
978382,534.00
978398,463.00
978414,392.00
978430,458.00
978445,339.00
978461,404.00
978477,506.00
978493,566.00
978509,612.00
978524,565.00
978540,389.00
978556,268.00
978572,14.00
978588,403.00
978604,906.00
978619,1024.00
978635,577.00
978651,1024.00
978667,341.00
978683,17.00
978698,22.00
978714,20.00
978730,20.00
978746,20.00
978762,18.00
978778,15.00
978793,264.00
978809,472.00
978825,380.00
978841,346.00
978857,392.00
978872,353.00
978888,281.00
978904,844.00
978920,1024.00
978936,1024.00
978952,281.00
978967,633.00
978983,187.00
978999,848.00
979015,1024.00
979031,610.00
979046,461.00
979062,435.00
979078,364.00
979094,401.00
979110,617.00
979126,572.00
979141,338.00
979157,17.00
979173,87.00
979189,130.00
979205,547.00
979221,1017.00
979236,820.00
979252,1024.00
979268,1024.00
979284,1024.00
979300,929.00
979315,564.00
979331,517.00
979347,321.00
979363,677.00
979379,68.00
979395,16.00
979410,14.00
979426,14.00
979442,17.00
979458,29.00
979474,184.00
979489,600.00
979505,862.00
979521,1024.00
979537,1024.00
979553,1024.00
979569,968.00
979584,789.00
979600,819.00
979616,591.00
979632,542.00
979648,676.00
979663,670.00
979679,583.00
979695,522.00
979711,342.00
979727,913.00
979743,231.00
979758,16.00
979774,17.00
979790,16.00
979806,793.00
979822,914.00
979837,941.00
979853,93.00
979869,444.00
979885,927.00
979901,1024.00
979917,1024.00
979932,1024.00
979948,1024.00
979964,1024.00
979980,890.00
979996,374.00
980011,186.00
980027,22.00
980043,22.00
980059,21.00
980075,629.00
980091,998.00
980106,698.00
980122,936.00
980138,1024.00
980154,603.00
980170,223.00
980185,399.00
980201,734.00
980217,103.00
980233,265.00
980249,446.00
980265,625.00
980280,800.00
980296,620.00
980312,463.00
980328,127.00
980344,15.00
980359,16.00
980375,17.00
980391,400.00
980407,714.00
980423,792.00
980439,1024.00
980454,812.00
980470,456.00
980486,360.00
980502,1024.00
980518,882.00
980534,518.00
980549,579.00
980565,716.00
980581,890.00
980597,512.00
980613,329.00
980628,108.00
980644,237.00
980660,158.00
980676,646.00
980692,543.00
980708,38.00
980723,15.00
980739,118.00
980755,705.00
980771,1024.00
980787,1024.00
980802,1024.00
980818,713.00
980834,662.00
980850,727.00
980866,615.00
980882,284.00
980897,386.00
980913,470.00
980929,428.00
980945,298.00
980961,80.00
980976,339.00
980992,642.00
981008,1024.00
981024,946.00
981040,729.00
981056,561.00
981071,475.00
981087,416.00
982328,989.00
982339,535.00
982349,1024.00
982359,1024.00
982369,1024.00
982379,1024.00
982390,1024.00
982400,956.00
983436,565.00
983447,625.00
983457,850.00
983467,826.00
983477,979.00
983487,1024.00
983497,1024.00
983507,1024.00
983517,1024.00
983527,1024.00
983537,1024.00
983547,1024.00
983557,775.00
983567,761.00
983577,951.00
983587,897.00
983597,625.00
983607,364.00
983617,262.00
983627,178.00
983637,19.00
983647,21.00
983657,21.00
983667,17.00
983677,20.00
983687,20.00
983697,19.00
983707,33.00
983717,537.00
983727,706.00
983737,735.00
983747,895.00
983757,1024.00
983767,1024.00
983777,1024.00
983787,878.00
983797,337.00
983807,523.00
983817,747.00
983827,711.00
983837,531.00
983847,454.00
983857,341.00
983867,406.00
983877,442.00
983887,368.00
983897,368.00
983907,430.00
983917,372.00
983927,211.00
983937,181.00
983947,103.00
983957,19.00
983967,106.00
983977,274.00
983987,411.00
983998,20.00
984014,20.00
984030,525.00
984045,430.00
984061,688.00
984077,956.00
984093,989.00
984109,1024.00
984125,702.00
984140,1024.00
984156,954.00
984172,981.00
984188,849.00
984204,555.00
984219,18.00
984235,16.00
984251,15.00
984267,16.00
984283,16.00
984299,403.00
984314,686.00
984330,1024.00
984346,1024.00
984362,958.00
984378,943.00
984393,848.00
984409,684.00
984425,717.00
984441,814.00
984457,989.00
984473,740.00
984488,355.00
984504,238.00
984520,322.00
984536,410.00
984552,342.00
984567,133.00
984583,78.00
984599,205.00
984615,783.00
984631,646.00
984647,19.00
984662,14.00
984678,1024.00
984694,1024.00
984710,1024.00
984726,902.00
984742,845.00
984757,666.00
984773,682.00
984789,528.00
984805,174.00
984821,18.00
984836,16.00
984852,18.00
984868,16.00
984884,255.00
984900,117.00
984916,17.00
984931,536.00
984947,385.00
984963,492.00
984979,868.00
984995,1024.00
985010,1024.00
985026,1024.00
985042,1024.00
985058,303.00
985074,429.00
985090,324.00
985105,115.00
985121,16.00
985137,19.00
985153,16.00
985169,16.00
985184,17.00
985200,18.00
985216,680.00
985232,1024.00
985248,1024.00
985264,1024.00
985279,1024.00
985295,1024.00
985311,1024.00
985327,796.00
985343,818.00
985358,409.00
985374,386.00
985390,866.00
985406,154.00
985422,37.00
985438,20.00
985453,15.00
985469,16.00
985485,17.00
985501,435.00
985517,1024.00
985652,1024.00
985663,1024.00
985673,1008.00
985683,492.00
985693,229.00
985703,22.00
985713,20.00
985723,18.00
985733,15.00
985743,17.00
985753,19.00
985763,18.00
985773,15.00
985783,15.00
985793,14.00
985803,14.00
985813,355.00
985823,771.00
985833,926.00
985843,858.00
985853,929.00
985865,810.00
985880,493.00
985896,22.00
985912,205.00
985928,421.00
985944,561.00
985960,474.00
985975,353.00
985991,20.00
986007,17.00
986023,17.00
986039,17.00
986054,14.00
986070,392.00
986086,1024.00
986102,1024.00
986118,1024.00
986134,1024.00
986149,1024.00
986165,1024.00
986181,1024.00
986197,1024.00
986213,1024.00
986229,1024.00
986244,920.00
986260,619.00
986276,366.00
986292,62.00
986308,12.00
986323,16.00
986339,12.00
986355,296.00
986371,489.00
986387,15.00
986403,230.00
986418,249.00
986434,1024.00
986450,1024.00
986466,1024.00
986482,1016.00
986497,474.00
986513,733.00
986529,621.00
986545,621.00
986561,362.00
986577,19.00
986592,19.00
986608,28.00
986624,18.00
986640,15.00
986656,16.00
986671,16.00
986687,247.00
986703,377.00
986719,354.00
986735,917.00
986751,1024.00
986766,1024.00
986782,1024.00
986798,1024.00
986814,895.00
986830,932.00
986846,819.00
986861,786.00
986877,797.00
986893,582.00
986909,122.00
986925,12.00
986941,17.00
986956,15.00
986972,12.00
986988,16.00
987004,17.00
987020,15.00
987035,687.00
987051,582.00
987067,1024.00
987083,1024.00
987099,1024.00
987114,1024.00
987130,461.00
987146,486.00
987162,21.00
987178,19.00
987194,16.00
987209,18.00
987225,15.00
987241,17.00
987257,904.00
987273,902.00
987288,845.00
987304,921.00
987320,1024.00
987336,1024.00
987352,1024.00
987368,1024.00
987383,1024.00
987399,1024.00
987415,1024.00
987431,1024.00
987447,1024.00
987462,1024.00
987478,941.00
987494,1000.00
987510,210.00
987526,15.00
987542,17.00
987557,19.00
987573,14.00
987589,15.00
987605,313.00
987621,373.00
987636,975.00
987652,1024.00
987668,1024.00
987684,1024.00
987700,1024.00
987716,1024.00
987731,394.00
987747,367.00
987763,79.00
987779,20.00
987795,15.00
987810,17.00
987826,18.00
987842,981.00
987858,726.00
987874,19.00
987890,14.00
987905,216.00
987921,1024.00
987937,1024.00
987953,1024.00
987969,966.00
987984,804.00
988000,745.00
988016,598.00
988032,617.00
988048,605.00
988064,541.00
988079,300.00
988095,74.00
988111,12.00
988127,14.00
988143,15.00
988158,15.00
988174,13.00
988190,13.00
988206,660.00
988222,510.00
988238,1024.00
988253,740.00
988269,724.00
988285,675.00
988301,797.00
988317,871.00
988333,686.00
988348,495.00
988364,303.00
988380,327.00
988396,449.00
988412,617.00
988427,716.00
988443,788.00
988459,781.00
988475,768.00
988491,736.00
988507,737.00
988522,592.00
988538,716.00
988554,867.00
988570,67.00
988586,9.00
988601,149.00
988617,485.00
988633,660.00
988649,942.00
988665,939.00
988681,511.00
988696,559.00
988712,885.00
988728,1020.00
988744,900.00
988760,548.00
988775,393.00
988791,283.00
988807,16.00
988823,15.00
988839,14.00
988855,16.00
988870,13.00
988886,538.00
988902,1024.00
988918,507.00
988934,102.00
988949,41.00
988965,144.00
988981,369.00
988997,644.00
989013,368.00
989029,277.00
989044,541.00
989060,773.00
989076,1024.00
989092,1024.00
989108,645.00
989123,522.00
989139,210.00
989155,45.00
989171,174.00
989187,365.00
989203,394.00
989218,78.00
989234,64.00
989250,938.00
989266,746.00
989282,567.00
989298,184.00
989313,217.00
989329,464.00
989345,628.00
989361,22.00
989377,19.00
989392,17.00
989408,15.00
989424,15.00
989440,18.00
989456,17.00
989471,16.00
989487,13.00
989503,17.00
989519,13.00
989535,13.00
989551,16.00
989566,15.00
989582,1024.00
989598,1024.00
989614,1024.00
989630,332.00
989646,1024.00
989661,1024.00
989677,768.00
989693,459.00
989709,169.00
989725,502.00
989740,810.00
989756,784.00
989772,473.00
989788,782.00
989804,788.00
989820,632.00
989835,519.00
989851,732.00
989867,787.00
989883,1024.00
989899,624.00
989914,495.00
989930,38.00
989946,242.00
989962,521.00
989978,454.00
989994,697.00
990009,482.00
990025,436.00
990041,358.00
990057,750.00
990073,1006.00
990088,1024.00
990104,1024.00
990120,862.00
990136,610.00
990152,405.00
990168,835.00
990183,861.00
990199,536.00
990215,508.00
990231,641.00
990247,264.00
990262,132.00
990278,317.00
990294,761.00
990310,1024.00
990326,927.00
990342,786.00
990357,703.00
990373,547.00
990389,795.00
990405,649.00
990421,666.00
990436,13.00
990452,132.00
990468,686.00
990484,533.00
990500,247.00
990516,37.00
990531,15.00
990547,16.00
990563,513.00
990579,961.00
990595,698.00
990610,218.00
990626,488.00
990642,1024.00
990658,1024.00
990674,1024.00
990690,1024.00
990705,891.00
990721,301.00
990737,495.00
990753,687.00
990769,657.00
990784,402.00
990800,505.00
990816,374.00
990832,13.00
990848,15.00
990864,162.00
990879,612.00
990895,689.00
990911,677.00
990927,807.00
990943,817.00
990958,652.00
990974,925.00
990990,1024.00
991006,970.00
991022,202.00
991038,636.00
991053,508.00
991069,453.00
991085,19.00
991101,48.00
991117,492.00
991132,1024.00
991148,877.00
991164,598.00
991180,493.00
991196,682.00
991212,780.00
991227,645.00
991243,390.00
991259,324.00
991275,650.00
991291,734.00
991306,769.00
991322,297.00
991338,16.00
991354,17.00
991370,13.00
991386,13.00
991401,10.00
991417,376.00
991433,888.00
991449,630.00
991465,910.00
991481,698.00
991496,643.00
991512,864.00
991528,487.00
991544,315.00
991560,504.00
991575,823.00
991591,509.00
991607,1024.00
991623,787.00
991639,205.00
991655,302.00
991670,617.00
991686,1024.00
991702,1024.00
991718,1024.00
991734,183.00
991749,341.00
991765,564.00
991781,954.00
991797,849.00
991813,442.00
991829,1024.00
991844,913.00
991860,405.00
991876,487.00
991892,249.00
991908,444.00
991923,271.00
991939,13.00
991955,13.00
991971,518.00
991987,912.00
992003,592.00
992018,380.00
992034,826.00
992050,1024.00
992066,1024.00
992082,1024.00
992097,238.00
992113,422.00
992129,331.00
992145,978.00
992161,996.00
992177,405.00
992192,18.00
992208,19.00
992224,19.00
992240,281.00
992256,1024.00
992272,1024.00
992287,1024.00
992303,531.00
992319,543.00
992335,579.00
992351,687.00
992366,609.00
992382,548.00
992398,529.00
992414,906.00
992430,102.00
992446,373.00
992461,457.00
992477,409.00
992493,10.00
992509,9.00
992525,210.00
992540,675.00
992556,696.00
992572,536.00
992588,413.00
