48001,860.00
48012,874.00
48022,921.00
48032,961.00
48133,492.00
48144,469.00
48154,465.00
48164,473.00
48174,488.00
48184,481.00
48194,475.00
48204,505.00
48214,509.00
48337,604.00
48348,169.00
48358,181.00
48368,283.00
48378,379.00
48388,326.00
48398,264.00
48408,202.00
48418,91.00
48428,13.00
48441,12.00
48451,14.00
48461,16.00
48471,15.00
48481,15.00
48491,12.00
48501,12.00
48511,15.00
48521,14.00
48531,12.00
48541,12.00
48551,13.00
48561,15.00
48571,10.00
48581,12.00
48591,15.00
48601,13.00
48611,14.00
48621,13.00
48631,13.00
48641,10.00
48651,10.00
48661,14.00
48671,13.00
48681,15.00
48691,12.00
48701,15.00
48711,15.00
48721,14.00
48731,15.00
48741,15.00
48751,12.00
48761,14.00
48771,15.00
48781,10.00
48791,15.00
48801,14.00
48811,13.00
48821,16.00
48831,14.00
48841,12.00
48851,12.00
48861,12.00
48871,14.00
48881,10.00
48891,14.00
48901,139.00
48916,643.00
48932,891.00
48948,1024.00
48964,1024.00
48980,1024.00
48995,1024.00
49011,1024.00
49027,1024.00
49043,1024.00
49059,1024.00
49075,1024.00
49090,1024.00
49106,1024.00
49122,285.00
49138,153.00
49154,405.00
49169,859.00
49185,1024.00
49201,1024.00
49217,1024.00
49233,1024.00
49248,1024.00
49264,1024.00
49280,1024.00
49296,1024.00
49312,1024.00
49328,1024.00
49343,1024.00
49359,1024.00
49375,1024.00
49391,1024.00
49407,1024.00
49422,1024.00
49438,1015.00
49454,612.00
49470,530.00
49486,564.00
49502,653.00
49517,728.00
49533,740.00
49549,689.00
49565,526.00
49581,457.00
49596,421.00
49612,441.00
49628,387.00
49644,581.00
49660,1024.00
49676,430.00
49691,129.00
49707,313.00
49723,468.00
49739,452.00
49755,369.00
49770,292.00
49786,127.00
49802,17.00
49818,15.00
49834,13.00
49850,14.00
49865,15.00
49881,15.00
49897,15.00
49913,15.00
49929,110.00
49944,225.00
49960,375.00
49976,468.00
49992,514.00
50008,589.00
50024,684.00
50039,669.00
50055,617.00
50071,598.00
50087,799.00
50103,1024.00
50118,1024.00
50134,862.00
50150,486.00
50166,488.00
50182,415.00
50198,281.00
50213,183.00
50229,124.00
50245,139.00
50261,76.00
50277,12.00
50292,12.00
50308,12.00
50324,14.00
50340,12.00
50356,15.00
50372,12.00
50387,12.00
50403,12.00
50419,12.00
50435,30.00
50451,25.00
50466,317.00
50482,385.00
50498,236.00
50514,375.00
50530,603.00
50546,766.00
50561,849.00
50577,873.00
50593,893.00
50609,908.00
50625,805.00
50640,688.00
50656,586.00
50672,523.00
50688,471.00
50704,378.00
50720,360.00
50735,345.00
50751,346.00
50767,372.00
50783,398.00
50799,412.00
50814,425.00
50830,387.00
50846,382.00
50862,413.00
50878,427.00
50894,477.00
50909,501.00
50925,582.00
50941,666.00
50957,732.00
50973,697.00
50988,648.00
51004,652.00
51020,800.00
51036,1024.00
51052,1024.00
51068,841.00
51083,696.00
51099,845.00
51115,937.00
51131,1011.00
51147,1024.00
51162,1024.00
51178,1024.00
51194,1024.00
51210,1024.00
51226,1024.00
51242,1024.00
51257,1024.00
51273,1024.00
51289,922.00
51305,883.00
51321,869.00
51336,807.00
51352,768.00
51368,686.00
51384,625.00
51400,554.00
51416,466.00
51431,365.00
51447,350.00
51463,361.00
51479,341.00
51495,594.00
51510,1024.00
51526,103.00
51542,10.00
51558,15.00
51574,127.00
51590,147.00
51605,113.00
51621,166.00
51637,225.00
51653,279.00
51669,308.00
51684,276.00
51700,199.00
51716,177.00
51732,202.00
51748,214.00
51764,220.00
51779,236.00
51795,246.00
51811,293.00
51827,333.00
51843,397.00
51858,385.00
51874,372.00
51890,315.00
51906,216.00
51922,181.00
51938,94.00
51953,237.00
51969,594.00
51985,14.00
52001,15.00
52017,16.00
52033,10.00
52048,15.00
52064,14.00
52080,12.00
52096,15.00
52112,14.00
52127,10.00
52143,12.00
52159,14.00
52175,15.00
52191,12.00
52207,13.00
52222,14.00
52238,16.00
52254,630.00
52270,945.00
52286,1024.00
52301,1024.00
52317,1024.00
52333,1024.00
52349,1024.00
52365,1024.00
52381,1024.00
52396,1024.00
52412,1024.00
52428,1024.00
52444,1024.00
52460,1024.00
52475,1024.00
52491,1024.00
52507,1024.00
52523,1024.00
52539,1024.00
52554,1024.00
52570,1024.00
52586,1024.00
52602,1022.00
52618,662.00
52634,620.00
52649,543.00
52665,512.00
52681,544.00
52697,630.00
52713,696.00
52728,677.00
52744,586.00
52760,472.00
52776,448.00
52792,464.00
52808,486.00
52823,525.00
52839,573.00
52855,900.00
52871,1024.00
52887,1024.00
52902,293.00
52918,424.00
52934,542.00
52950,685.00
52966,718.00
52982,729.00
52997,793.00
53013,828.00
53029,798.00
53045,735.00
53061,615.00
53077,541.00
53092,460.00
53108,403.00
53124,384.00
53140,396.00
53156,368.00
53171,349.00
53187,297.00
53203,261.00
53219,228.00
53235,219.00
53251,198.00
53266,230.00
53282,304.00
53298,423.00
53314,766.00
53330,693.00
53345,10.00
53361,17.00
53377,534.00
53393,950.00
53409,1024.00
53425,1024.00
53440,1024.00
53456,1024.00
53472,1024.00
53488,1024.00
53504,1024.00
53519,1024.00
53535,1024.00
53551,598.00
53567,304.00
53583,114.00
53598,60.00
53614,21.00
53630,61.00
53646,497.00
53662,812.00
53678,672.00
53693,228.00
53709,12.00
53725,15.00
53741,16.00
53757,15.00
53772,388.00
53788,12.00
53804,15.00
53820,12.00
53836,14.00
53852,14.00
53867,13.00
53883,12.00
53899,15.00
53915,12.00
53931,14.00
53946,15.00
53962,14.00
53978,13.00
53994,15.00
54010,14.00
54026,12.00
54041,192.00
54057,181.00
54073,187.00
54089,253.00
54105,377.00
54120,544.00
54136,646.00
54152,717.00
54168,768.00
54184,804.00
54200,797.00
54215,1024.00
54231,1024.00
54247,173.00
54263,94.00
54279,248.00
54294,337.00
54310,373.00
54326,398.00
54342,493.00
54358,658.00
54373,763.00
54389,712.00
54405,574.00
54421,408.00
54437,307.00
54453,337.00
54468,459.00
54484,630.00
54500,771.00
54516,843.00
54532,901.00
54548,945.00
54563,1002.00
54579,1021.00
54595,973.00
54611,885.00
54627,818.00
54642,845.00
54658,1024.00
54674,1024.00
54690,942.00
54706,512.00
54722,771.00
54737,891.00
54753,908.00
54769,906.00
54785,982.00
54801,1024.00
54816,1024.00
54832,1024.00
54848,999.00
54864,723.00
54880,581.00
54896,534.00
54911,394.00
54927,225.00
54943,122.00
54959,194.00
54975,478.00
54990,762.00
55006,929.00
55022,864.00
55038,725.00
55054,675.00
55070,682.00
55085,706.00
55101,933.00
55117,1024.00
55133,967.00
55149,406.00
55164,584.00
55180,702.00
55196,738.00
55212,766.00
55228,763.00
55243,795.00
55259,869.00
55275,885.00
55291,869.00
55307,876.00
55323,889.00
55338,843.00
55354,734.00
55370,571.00
55386,492.00
55402,426.00
55417,394.00
55433,342.00
55449,388.00
55465,482.00
55481,604.00
55497,673.00
55512,686.00
55528,607.00
55544,585.00
55560,921.00
55576,844.00
55591,201.00
55607,309.00
55623,413.00
55639,377.00
55655,292.00
55671,293.00
55686,317.00
55702,382.00
55718,409.00
55734,372.00
55750,265.00
55765,184.00
55781,111.00
55797,99.00
55813,124.00
55829,214.00
55845,278.00
55860,272.00
55876,250.00
55892,185.00
55908,140.00
55924,60.00
55939,14.00
55955,12.00
55971,15.00
55987,15.00
56003,12.00
56019,14.00
56034,49.00
56050,15.00
56066,12.00
56082,12.00
56098,14.00
56113,10.00
56129,14.00
56145,10.00
56161,15.00
56177,15.00
56193,13.00
56208,171.00
56224,195.00
56240,216.00
56256,235.00
56272,272.00
56287,394.00
56303,496.00
56319,562.00
56335,574.00
56351,510.00
56367,501.00
56382,449.00
56398,372.00
56414,301.00
56430,344.00
56446,436.00
56461,550.00
56477,1006.00
56493,1024.00
56509,327.00
56525,557.00
56541,802.00
56556,883.00
56572,960.00
56588,953.00
56604,1024.00
56620,1024.00
56635,1024.00
56651,1024.00
56667,1024.00
56683,1005.00
56699,894.00
56715,870.00
56730,897.00
56746,893.00
56762,903.00
56778,880.00
56794,883.00
56809,918.00
56825,928.00
56841,937.00
56857,937.00
56873,925.00
56889,941.00
56904,917.00
56920,1024.00
56936,1024.00
56952,1024.00
56968,573.00
56983,714.00
56999,869.00
57015,907.00
57031,900.00
57047,917.00
57063,975.00
57078,1024.00
57094,999.00
57110,930.00
57126,841.00
57142,762.00
57157,703.00
57173,677.00
57189,673.00
57205,660.00
57221,669.00
57237,655.00
57252,657.00
57268,689.00
57284,721.00
57300,741.00
57316,704.00
57331,669.00
57347,682.00
57363,660.00
57379,878.00
57395,1024.00
57411,235.00
57426,183.00
57442,351.00
57458,425.00
57474,484.00
57490,465.00
57505,482.00
57521,560.00
57537,571.00
57553,547.00
57569,521.00
57585,429.00
57600,379.00
57616,353.00
57632,366.00
57648,416.00
57664,421.00
57679,416.00
57695,408.00
57711,424.00
57727,488.00
57743,538.00
57758,552.00
57774,512.00
57790,475.00
57806,465.00
57822,426.00
57838,524.00
57853,828.00
57869,13.00
57885,10.00
57901,25.00
57917,228.00
57933,352.00
57948,463.00
57964,554.00
57980,640.00
57996,663.00
58012,591.00
58027,440.00
58043,208.00
58059,19.00
58075,15.00
58091,15.00
58107,14.00
58122,10.00
58138,13.00
58154,15.00
58170,15.00
58186,91.00
58201,147.00
58217,204.00
58233,217.00
58249,237.00
58265,301.00
58281,377.00
58296,514.00
58312,950.00
58328,646.00
58344,205.00
58360,363.00
58375,535.00
58391,583.00
58407,615.00
58423,666.00
58439,716.00
58455,820.00
58470,838.00
58486,846.00
58502,784.00
58518,701.00
58534,607.00
58549,598.00
58565,604.00
58581,660.00
58597,662.00
58613,633.00
58629,632.00
58644,612.00
58660,632.00
58676,600.00
58692,569.00
58708,500.00
58723,484.00
58739,496.00
58755,576.00
58771,1024.00
58787,615.00
58803,136.00
58818,295.00
58834,516.00
58850,571.00
58866,641.00
58882,663.00
58897,789.00
58913,893.00
58929,924.00
58945,906.00
58961,812.00
58977,726.00
58992,688.00
59008,642.00
59024,637.00
59040,645.00
59056,600.00
59071,601.00
59087,601.00
59103,633.00
59119,643.00
59135,634.00
59151,582.00
59166,556.00
59182,566.00
59198,571.00
59214,777.00
59230,1024.00
59245,444.00
59261,257.00
59277,461.00
59293,582.00
59309,619.00
59325,645.00
59340,627.00
59356,709.00
59372,801.00
59388,773.00
59404,713.00
59419,627.00
59435,558.00
59451,543.00
59467,535.00
59483,536.00
59499,560.00
59514,566.00
59530,577.00
59546,558.00
59562,576.00
59578,549.00
59593,521.00
59609,460.00
59625,420.00
59641,416.00
59657,414.00
59672,670.00
59688,1023.00
59704,150.00
59720,196.00
59736,413.00
59752,542.00
59767,632.00
59783,723.00
59799,790.00
59815,860.00
59831,894.00
59846,904.00
59862,853.00
59878,766.00
59894,668.00
59910,609.00
59926,595.00
59941,612.00
59957,610.00
59973,581.00
59989,535.00
60005,498.00
60020,476.00
60036,464.00
60052,391.00
60068,313.00
60084,253.00
60100,232.00
60115,197.00
60131,285.00
60147,644.00
60163,14.00
60179,15.00
60194,14.00
60210,14.00
60226,12.00
60242,12.00
60258,10.00
60274,13.00
60289,16.00
60305,12.00
60321,15.00
60337,12.00
60353,14.00
60368,10.00
60384,62.00
60400,150.00
60416,237.00
60432,324.00
60448,382.00
60463,454.00
60479,514.00
60495,600.00
60511,663.00
60527,668.00
60542,662.00
60558,678.00
60574,697.00
60590,783.00
60606,1024.00
60622,1024.00
60637,373.00
60653,511.00
60669,721.00
60685,792.00
60701,826.00
60716,823.00
60732,854.00
60748,918.00
60764,961.00
60780,933.00
60795,824.00
60811,708.00
60827,660.00
60843,614.00
60859,608.00
60875,610.00
60890,560.00
60906,529.00
60922,517.00
60938,517.00
60954,566.00
60969,570.00
60985,592.00
61001,565.00
61017,558.00
61033,574.00
61049,594.00
61064,964.00
61080,1024.00
61096,261.00
61112,390.00
61128,590.00
61143,692.00
61159,765.00
61175,774.00
61191,852.00
61207,946.00
61223,984.00
61238,919.00
61254,843.00
61270,705.00
61286,619.00
61302,573.00
61317,568.00
61333,589.00
61349,594.00
61365,583.00
61381,573.00
61397,572.00
61412,582.00
61428,558.00
61444,533.00
61460,481.00
61476,463.00
61492,493.00
61507,498.00
61523,781.00
61539,1024.00
61555,241.00
61571,283.00
61586,477.00
61602,565.00
61618,662.00
61634,701.00
61650,734.00
61666,785.00
61681,775.00
61697,691.00
61713,632.00
61729,605.00
61745,604.00
61760,569.00
61776,502.00
61792,496.00
61808,517.00
61824,616.00
61840,651.00
61855,722.00
61871,770.00
61887,816.00
61903,832.00
61919,807.00
61934,764.00
61950,766.00
61966,701.00
61982,711.00
61998,1024.00
62013,622.00
62029,17.00
62045,60.00
62061,213.00
62077,246.00
62093,264.00
62108,292.00
62124,348.00
62140,439.00
62156,482.00
62172,452.00
62187,342.00
62203,259.00
62219,200.00
62235,300.00
62251,576.00
62267,739.00
62282,688.00
62298,555.00
62314,498.00
62330,522.00
62346,567.00
62361,616.00
62377,612.00
62393,605.00
62409,565.00
62425,440.00
62441,300.00
62456,205.00
62472,399.00
62488,474.00
62504,14.00
62520,15.00
62535,10.00
62551,14.00
62567,12.00
62583,12.00
62599,13.00
62615,10.00
62630,14.00
62646,101.00
62662,133.00
62678,76.00
62694,29.00
62709,70.00
62725,124.00
62741,148.00
62757,139.00
62773,125.00
62789,187.00
62804,235.00
62820,415.00
62836,507.00
62852,553.00
62868,589.00
62883,577.00
62899,616.00
62915,754.00
62931,605.00
62947,679.00
62963,1024.00
62978,759.00
62994,329.00
63010,489.00
63026,652.00
63042,654.00
63057,665.00
63073,739.00
63089,842.00
63105,968.00
63121,1021.00
63137,981.00
63152,906.00
63168,811.00
63184,748.00
63200,729.00
63216,773.00
63231,840.00
63247,833.00
63263,794.00
63279,783.00
63295,807.00
63310,844.00
63326,857.00
63342,849.00
63358,817.00
63374,806.00
63390,813.00
63405,817.00
63421,860.00
63437,1024.00
63453,1024.00
63469,451.00
63484,600.00
63500,771.00
63516,801.00
63532,821.00
63548,812.00
63564,836.00
63579,873.00
63595,908.00
63611,874.00
63627,790.00
63643,717.00
63658,673.00
63674,680.00
63690,733.00
63706,776.00
63722,795.00
63738,735.00
63753,643.00
63769,582.00
63785,486.00
63801,490.00
63817,478.00
63832,390.00
63848,305.00
63864,272.00
63880,281.00
63896,329.00
63912,733.00
63927,684.00
63943,12.00
63959,14.00
63975,55.00
63991,349.00
64007,322.00
64022,327.00
64038,364.00
64054,447.00
64070,549.00
64086,597.00
64101,504.00
64117,402.00
64133,358.00
64149,324.00
64165,290.00
64181,363.00
64196,334.00
64212,327.00
64228,382.00
64244,411.00
64260,297.00
64275,250.00
64291,389.00
64307,316.00
64323,86.00
64339,196.00
64354,426.00
64370,498.00
64386,807.00
64402,1024.00
64418,934.00
64434,380.00
64449,633.00
64465,802.00
64481,889.00
64497,914.00
64513,903.00
64528,948.00
64544,1024.00
64560,1024.00
64576,1024.00
64592,1024.00
64608,1024.00
64623,912.00
64639,776.00
64655,616.00
64671,506.00
64687,408.00
64702,390.00
64718,378.00
64734,390.00
64750,363.00
64766,313.00
64782,297.00
64797,284.00
64813,277.00
64829,285.00
64845,265.00
64861,223.00
64876,368.00
64892,838.00
64908,14.00
64924,10.00
64940,14.00
64956,94.00
64971,184.00
64987,181.00
65003,130.00
65019,151.00
65035,247.00
65050,386.00
65066,465.00
65082,485.00
65098,511.00
65114,533.00
65130,557.00
65145,589.00
65161,614.00
65177,612.00
65193,577.00
65209,558.00
65224,649.00
65240,804.00
65256,948.00
65272,980.00
65288,867.00
65304,697.00
65319,558.00
65335,461.00
65351,517.00
65367,949.00
65383,752.00
65398,112.00
65414,189.00
65430,297.00
65446,309.00
65462,290.00
65478,284.00
65493,368.00
65509,494.00
65525,660.00
65541,768.00
65557,770.00
65572,672.00
65588,616.00
65604,596.00
65620,559.00
65636,553.00
65651,537.00
65667,524.00
65683,512.00
65699,598.00
65715,678.00
65731,748.00
65746,742.00
65762,666.00
65778,610.00
65794,633.00
65810,600.00
65825,721.00
65841,1024.00
65857,953.00
65873,374.00
65889,555.00
65905,725.00
65920,804.00
65936,831.00
65952,855.00
65968,888.00
65984,973.00
65999,1024.00
66015,1024.00
66031,1024.00
66047,1024.00
66063,921.00
66079,879.00
66094,904.00
66110,909.00
66126,988.00
66142,1024.00
66158,1024.00
66173,1024.00
66189,1024.00
66205,1024.00
66221,948.00
66237,785.00
66253,634.00
66268,567.00
66284,386.00
66300,504.00
66316,845.00
66332,14.00
66347,14.00
66363,90.00
66379,284.00
66395,326.00
66411,252.00
66427,173.00
66442,154.00
66458,132.00
66474,118.00
66490,160.00
66506,112.00
66522,36.00
66537,10.00
66553,14.00
66569,53.00
66585,73.00
66601,25.00
66616,10.00
66632,15.00
66648,12.00
66664,14.00
66680,10.00
66696,10.00
66711,10.00
66727,12.00
66743,12.00
66759,12.00
66775,12.00
66790,10.00
66806,10.00
66822,12.00
66838,14.00
66854,10.00
66869,13.00
66885,541.00
66901,604.00
66917,617.00
66933,655.00
66949,741.00
66964,762.00
66980,700.00
66996,654.00
67012,700.00
67028,744.00
67043,756.00
67059,796.00
67075,769.00
67091,754.00
67107,771.00
67123,825.00
67138,867.00
67154,888.00
67170,880.00
67186,845.00
67202,847.00
67217,832.00
67233,818.00
67249,981.00
67265,1024.00
67281,1024.00
67297,625.00
67312,795.00
67328,941.00
67344,965.00
67360,1008.00
67376,1024.00
67391,1024.00
67407,1024.00
67423,1024.00
67439,1024.00
67455,1024.00
67471,891.00
67486,840.00
67502,842.00
67518,833.00
67534,874.00
67550,927.00
67565,989.00
67581,1024.00
67597,1011.00
67613,1003.00
67629,1001.00
67645,996.00
67660,968.00
67676,945.00
67692,937.00
67708,916.00
67724,1024.00
67739,1024.00
67755,1015.00
67771,604.00
67787,737.00
67803,795.00
67819,799.00
67834,794.00
67850,783.00
67866,806.00
67882,769.00
67898,697.00
67913,561.00
67929,382.00
67945,295.00
67961,229.00
67977,241.00
67993,229.00
68008,284.00
68024,379.00
68040,456.00
68056,595.00
68072,726.00
68087,874.00
68103,966.00
68119,1002.00
68135,1024.00
68151,1024.00
68166,974.00
68182,874.00
68198,1024.00
68214,1024.00
68230,494.00
68246,436.00
68261,657.00
68277,747.00
68293,640.00
68309,463.00
68325,341.00
68340,375.00
68356,488.00
68372,596.00
68388,559.00
68404,448.00
68420,284.00
68435,294.00
68451,243.00
68467,193.00
68483,100.00
68499,33.00
68514,19.00
68530,22.00
68546,13.00
68562,14.00
68578,12.00
68594,10.00
68609,14.00
68625,10.00
68641,14.00
68657,15.00
68673,15.00
68688,13.00
68704,15.00
68720,14.00
68736,15.00
68752,14.00
68768,12.00
68783,12.00
68799,14.00
68815,158.00
68831,482.00
68847,590.00
68863,679.00
68878,657.00
68894,549.00
68910,457.00
68926,463.00
68942,506.00
68957,521.00
68973,600.00
68989,686.00
69005,716.00
69021,697.00
69037,741.00
69052,724.00
69068,738.00
69084,829.00
69100,885.00
69116,854.00
69131,867.00
69147,861.00
69163,980.00
69179,1024.00
69195,1024.00
69211,634.00
69226,694.00
69242,820.00
69258,843.00
69274,896.00
69290,918.00
69305,974.00
69321,1024.00
69337,1024.00
69353,1024.00
69369,910.00
69385,764.00
69400,769.00
69416,777.00
69432,777.00
69448,784.00
69464,784.00
69479,771.00
69495,810.00
69511,838.00
69527,890.00
69543,902.00
69559,828.00
69574,759.00
69590,713.00
69606,706.00
69622,669.00
69638,666.00
69653,1024.00
69669,1024.00
69685,205.00
69701,354.00
69717,534.00
69732,590.00
69748,629.00
69764,688.00
69780,759.00
69796,897.00
69812,997.00
69827,1024.00
69843,985.00
69859,881.00
69875,810.00
69891,809.00
69907,777.00
69922,749.00
69938,690.00
69954,653.00
69970,612.00
69986,542.00
70001,498.00
70017,474.00
70033,435.00
70049,375.00
70065,303.00
292660,536.00
292671,493.00
292681,418.00
292691,423.00
292701,409.00
292711,355.00
292721,285.00
292731,234.00
292741,209.00
292751,218.00
292761,256.00
292856,561.00
292867,597.00
292877,614.00
292887,612.00
293135,633.00
293145,660.00
293155,692.00
293165,733.00
293175,733.00
293185,729.00
293195,742.00
293205,741.00
293215,725.00
293227,692.00
293238,662.00
293248,652.00
293258,669.00
293268,693.00
293278,706.00
293288,732.00
293298,772.00
293308,793.00
293318,818.00
293328,836.00
293338,829.00
293348,812.00
293358,807.00
293368,782.00
293378,761.00
293388,749.00
293398,735.00
293408,768.00
293418,783.00
293428,793.00
293438,810.00
293448,817.00
293458,796.00
293468,766.00
293478,722.00
293488,723.00
293498,712.00
293508,721.00
293518,726.00
293528,732.00
293538,773.00
293548,844.00
293558,1024.00
293568,1024.00
293578,793.00
293588,453.00
293598,424.00
293608,484.00
293618,543.00
293628,574.00
293638,562.00
293648,541.00
293658,532.00
293668,534.00
293678,541.00
293693,596.00
293709,616.00
293724,617.00
293740,645.00
293756,630.00
293772,626.00
293788,621.00
293804,597.00
293819,588.00
293835,595.00
293851,604.00
293867,593.00
293883,559.00
293898,525.00
293914,529.00
293930,537.00
293946,617.00
293962,553.00
293978,463.00
293993,357.00
294009,317.00
294025,294.00
294041,286.00
294057,369.00
294072,381.00
294088,309.00
294104,273.00
294120,478.00
294136,842.00
294152,257.00
294167,174.00
294183,240.00
294199,319.00
294215,387.00
294231,448.00
294246,501.00
294262,513.00
294278,535.00
294294,568.00
294310,609.00
294326,605.00
294341,580.00
294357,558.00
294373,565.00
294389,533.00
294405,519.00
294420,507.00
294435,504.00
294452,523.00
294468,558.00
294484,542.00
294499,529.00
294515,535.00
294531,546.00
294547,574.00
294563,584.00
294579,588.00
294594,572.00
294610,507.00
294626,468.00
294642,476.00
294658,480.00
294673,552.00
294689,879.00
294705,966.00
294721,270.00
294737,274.00
294753,411.00
294768,435.00
294784,428.00
294800,447.00
294816,459.00
294832,483.00
294847,501.00
294863,544.00
294879,569.00
294895,585.00
294911,579.00
294927,586.00
294942,576.00
294958,566.00
294974,556.00
294990,552.00
295006,508.00
295021,464.00
295037,448.00
295053,437.00
295069,421.00
295085,519.00
295101,564.00
295116,554.00
295132,565.00
295148,600.00
295164,591.00
295180,549.00
295196,512.00
295211,504.00
295227,501.00
295243,610.00
295259,1004.00
295275,1024.00
295290,346.00
295306,382.00
295322,500.00
295338,498.00
295354,494.00
295370,478.00
295385,495.00
295401,540.00
295417,518.00
295433,478.00
295449,454.00
295464,453.00
295480,445.00
295496,436.00
295512,415.00
295528,386.00
295543,398.00
295559,412.00
295575,456.00
295591,501.00
295607,562.00
295623,583.00
295638,598.00
295654,609.00
295670,613.00
295686,657.00
295702,639.00
295717,603.00
295733,592.00
295749,554.00
295765,471.00
295781,423.00
295797,339.00
295812,303.00
295828,537.00
295844,1024.00
295860,375.00
295876,127.00
295891,195.00
295907,246.00
295923,339.00
295939,373.00
295955,434.00
295971,498.00
295986,526.00
296002,502.00
296018,487.00
296034,452.00
296050,445.00
296065,450.00
296081,464.00
296097,488.00
296113,461.00
296129,420.00
296145,374.00
296160,357.00
296176,330.00
296192,296.00
296208,289.00
296224,269.00
296240,308.00
296255,356.00
296271,394.00
296287,408.00
296303,393.00
296319,384.00
296334,320.00
296350,319.00
296366,365.00
296382,441.00
296398,483.00
296414,777.00
296429,1024.00
296445,469.00
296461,430.00
296477,578.00
296493,657.00
296508,697.00
296524,721.00
296540,753.00
296556,768.00
296572,768.00
296588,778.00
296603,799.00
296619,810.00
296635,793.00
296651,787.00
296667,753.00
296682,729.00
296698,687.00
296714,668.00
296730,673.00
296746,686.00
296761,738.00
296777,757.00
296793,753.00
296809,734.00
296825,722.00
296841,728.00
296856,746.00
296872,741.00
296888,718.00
296904,725.00
296920,648.00
296935,592.00
296951,556.00
296967,552.00
296983,543.00
296999,751.00
297015,1001.00
297030,416.00
297046,339.00
297062,508.00
297078,637.00
297094,663.00
297109,694.00
297125,738.00
297141,682.00
297157,621.00
297173,586.00
297189,584.00
297204,590.00
297220,597.00
297236,586.00
297252,552.00
297268,499.00
297284,461.00
297299,425.00
297315,381.00
297331,332.00
297347,313.00
297363,327.00
297378,357.00
297394,396.00
297410,432.00
297426,463.00
297442,483.00
297458,513.00
297473,509.00
297489,517.00
297505,494.00
297521,453.00
297537,444.00
297552,444.00
297568,435.00
297584,531.00
297600,955.00
297616,736.00
297632,276.00
297647,372.00
297663,513.00
297679,511.00
297695,524.00
297711,434.00
297726,360.00
297742,297.00
297758,224.00
297774,188.00
297790,142.00
297805,14.00
297821,15.00
297837,15.00
297853,15.00
297869,53.00
297885,328.00
297900,499.00
297916,597.00
297932,583.00
297948,533.00
297964,506.00
297979,523.00
297995,552.00
298011,567.00
298027,570.00
298043,608.00
298059,644.00
298074,655.00
298090,702.00
298106,682.00
298122,621.00
298138,588.00
298153,561.00
298169,557.00
298185,569.00
298201,833.00
298217,1024.00
298233,553.00
298248,512.00
298264,675.00
298280,765.00
298296,778.00
298312,828.00
298327,871.00
298343,823.00
298359,750.00
298375,700.00
298391,678.00
298407,658.00
298422,641.00
298438,621.00
298454,565.00
298470,466.00
298486,393.00
298501,365.00
298517,397.00
298533,450.00
298549,508.00
298565,525.00
298581,530.00
298596,509.00
298612,530.00
298628,535.00
298644,545.00
298660,560.00
298675,582.00
298691,561.00
298707,585.00
298723,569.00
298739,590.00
298755,608.00
298770,601.00
298786,531.00
298802,646.00
298818,1024.00
298834,598.00
298849,318.00
298865,355.00
298881,402.00
298897,404.00
298913,433.00
298929,495.00
298944,544.00
298960,585.00
298976,578.00
298992,582.00
299008,544.00
299023,473.00
299039,459.00
299055,463.00
299071,469.00
299087,423.00
299103,355.00
299118,301.00
299134,241.00
299150,160.00
299166,14.00
299182,14.00
299198,15.00
299213,60.00
299229,277.00
299245,384.00
299261,451.00
299277,493.00
299292,553.00
299308,544.00
299324,534.00
299340,504.00
299356,413.00
299372,373.00
299387,327.00
299403,306.00
299419,318.00
299435,541.00
299451,901.00
299466,412.00
299482,332.00
299498,449.00
299514,602.00
299530,600.00
299546,586.00
299561,544.00
299577,606.00
299593,654.00
299609,638.00
299625,592.00
299640,608.00
299656,616.00
299672,616.00
299688,598.00
299704,598.00
299720,604.00
299735,605.00
299751,600.00
299767,620.00
299783,652.00
299799,662.00
299814,662.00
299830,662.00
299846,663.00
299862,681.00
299878,713.00
299894,792.00
299909,841.00
299925,812.00
299941,689.00
299957,605.00
299973,566.00
299988,589.00
300004,616.00
300020,751.00
300036,1024.00
300052,482.00
300068,368.00
300083,452.00
300099,487.00
300115,454.00
300131,500.00
300147,568.00
300162,615.00
300178,631.00
300194,649.00
300210,653.00
300226,573.00
300242,554.00
300257,594.00
300273,674.00
300289,518.00
300305,430.00
300321,396.00
300336,444.00
300352,586.00
300368,727.00
300384,765.00
300400,701.00
300416,609.00
300430,553.00
300447,470.00
300463,411.00
300479,468.00
300495,525.00
300510,502.00
300526,409.00
300542,277.00
300558,197.00
300574,151.00
300589,159.00
300605,301.00
300621,712.00
300637,420.00
300653,178.00
300669,206.00
300684,386.00
300700,448.00
300716,466.00
300732,468.00
300748,520.00
300763,654.00
300779,690.00
300795,708.00
300811,740.00
300827,759.00
300843,746.00
300858,699.00
300874,649.00
300890,585.00
300906,548.00
300922,554.00
300937,628.00
300953,640.00
300969,661.00
300985,625.00
301001,541.00
301017,476.00
301032,457.00
301048,466.00
301064,409.00
301080,387.00
301096,423.00
301110,440.00
301127,473.00
301143,534.00
301159,578.00
301174,549.00
301190,781.00
301206,1024.00
301222,776.00
301238,638.00
301254,560.00
301270,388.00
301285,418.00
301301,622.00
301317,687.00
301333,661.00
301349,621.00
301364,638.00
301380,630.00
301396,588.00
301412,555.00
301428,512.00
301444,493.00
301459,454.00
301475,451.00
301491,500.00
301507,544.00
301523,552.00
301538,485.00
301554,437.00
301570,361.00
301586,240.00
301602,169.00
301617,326.00
301633,226.00
301649,194.00
301665,188.00
301681,231.00
301697,226.00
301712,234.00
301728,240.00
301744,255.00
301760,436.00
301776,855.00
301791,749.00
301807,300.00
301823,328.00
301839,402.00
301855,454.00
301871,406.00
301886,429.00
301902,434.00
301918,453.00
301934,490.00
301950,531.00
301965,540.00
301981,537.00
301997,508.00
302013,505.00
302029,473.00
302045,509.00
302060,526.00
302076,637.00
302092,677.00
302108,720.00
302124,745.00
302139,758.00
302155,774.00
302171,772.00
302187,774.00
302203,748.00
302219,771.00
302234,802.00
302250,698.00
302266,616.00
302282,668.00
302298,739.00
302313,756.00
302329,888.00
302345,1024.00
302361,693.00
302377,521.00
302393,667.00
302408,824.00
302424,808.00
302440,763.00
302456,722.00
302472,652.00
302487,608.00
302503,590.00
302519,596.00
302535,525.00
302551,541.00
302567,493.00
302582,463.00
302598,439.00
302614,409.00
302630,394.00
302646,377.00
302661,373.00
302677,397.00
302693,374.00
302709,334.00
302725,330.00
302741,332.00
302756,342.00
302772,324.00
302788,303.00
302804,307.00
302820,235.00
302835,198.00
302851,226.00
302867,273.00
302883,290.00
302899,510.00
302914,478.00
302930,15.00
302946,14.00
302962,243.00
302978,428.00
302994,458.00
303009,472.00
303025,496.00
303041,474.00
303057,453.00
303073,414.00
303089,458.00
303104,507.00
303120,499.00
303136,506.00
303152,478.00
303168,469.00
303183,519.00
303199,540.00
303215,610.00
303231,641.00
303247,676.00
303262,727.00
303278,782.00
303294,806.00
315224,629.00
315234,645.00
315244,631.00
315254,628.00
315264,625.00
315274,606.00
315284,609.00
315294,640.00
315304,620.00
315314,615.00
315324,610.00
315334,591.00
315344,588.00
315354,581.00
315364,562.00
315374,576.00
315384,578.00
315394,598.00
315404,614.00
315414,624.00
315424,657.00
315434,669.00
315444,681.00
315454,684.00
315464,690.00
315474,688.00
315484,727.00
315494,730.00
315504,704.00
315514,656.00
315524,600.00
315534,578.00
315544,524.00
315554,482.00
315564,440.00
315574,409.00
315584,441.00
315594,493.00
315604,536.00
315614,634.00
315624,932.00
315634,1024.00
315644,1024.00
315654,987.00
315664,255.00
315674,273.00
315685,361.00
315695,362.00
315705,324.00
315715,417.00
315725,483.00
315735,552.00
315745,609.00
315758,641.00
315774,780.00
315790,763.00
315806,677.00
315822,427.00
315837,228.00
315853,67.00
315869,85.00
315885,226.00
315901,221.00
315916,266.00
315932,303.00
315948,368.00
315964,398.00
315980,482.00
315995,552.00
316011,644.00
316027,655.00
316043,542.00
316059,373.00
316075,258.00
316090,333.00
316106,461.00
316122,374.00
316138,432.00
316154,742.00
316169,770.00
316185,12.00
316201,13.00
316217,842.00
316233,1024.00
316249,1024.00
316264,558.00
316280,10.00
316296,341.00
316312,926.00
316328,945.00
316343,685.00
316359,526.00
316375,715.00
316391,926.00
316407,1024.00
316423,1024.00
316438,1024.00
316454,807.00
316470,662.00
316486,592.00
316502,523.00
316517,478.00
316533,450.00
316549,384.00
316565,316.00
316581,253.00
316597,238.00
316612,279.00
316628,305.00
316644,252.00
316660,424.00
316676,734.00
316691,125.00
316707,14.00
316723,66.00
316739,166.00
316755,148.00
316771,169.00
316786,247.00
316802,336.00
316818,400.00
316834,518.00
316850,557.00
316865,588.00
316881,537.00
316897,481.00
316913,410.00
316929,415.00
316944,423.00
316960,433.00
316976,429.00
316992,379.00
317008,356.00
317024,418.00
317039,451.00
317055,473.00
317071,520.00
317087,566.00
317103,560.00
317118,579.00
317134,608.00
317150,615.00
317166,664.00
317182,1024.00
317198,1003.00
317213,429.00
317229,470.00
317245,581.00
317261,614.00
317396,641.00
317407,630.00
317417,603.00
317427,582.00
317437,559.00
317447,566.00
317457,562.00
317467,583.00
317477,576.00
317487,589.00
317497,591.00
317648,430.00
317659,400.00
317669,400.00
317681,506.00
317692,729.00
317702,955.00
317712,644.00
317722,254.00
317732,226.00
317742,293.00
317752,373.00
317762,481.00
317772,497.00
317782,493.00
317792,485.00
317802,498.00
317812,500.00
317822,490.00
317832,487.00
317842,489.00
317852,501.00
317862,530.00
317872,548.00
317882,585.00
317892,606.00
317902,606.00
317912,618.00
317922,624.00
317932,616.00
317942,600.00
317952,588.00
317962,562.00
317972,538.00
317982,529.00
317992,517.00
318004,528.00
318020,544.00
318036,553.00
318052,571.00
318068,598.00
318083,605.00
318099,609.00
318115,604.00
318131,564.00
318147,554.00
318162,545.00
318178,521.00
318194,566.00
318210,933.00
318226,1024.00
318242,346.00
318257,391.00
318273,542.00
318289,564.00
318305,561.00
318321,574.00
318336,601.00
318352,596.00
318368,590.00
318384,607.00
318400,605.00
318416,602.00
318431,600.00
318447,581.00
318463,531.00
318479,516.00
318495,470.00
318511,458.00
318526,459.00
318542,471.00
318558,459.00
318574,446.00
318590,470.00
318605,478.00
318621,486.00
318637,496.00
318653,457.00
318669,388.00
318685,385.00
318700,381.00
318716,366.00
318732,602.00
318748,944.00
318764,270.00
318779,149.00
318795,306.00
318811,364.00
318827,374.00
318843,400.00
318859,432.00
318874,451.00
318890,456.00
318906,470.00
318922,474.00
318938,484.00
318953,476.00
318969,459.00
318985,440.00
319001,421.00
319017,410.00
319033,404.00
319048,405.00
319064,438.00
319080,438.00
319096,434.00
319112,438.00
319127,457.00
319143,494.00
319159,510.00
319175,514.00
319191,513.00
319207,481.00
319222,466.00
319238,472.00
319254,477.00
319270,596.00
319286,1024.00
319301,736.00
319317,284.00
319333,364.00
319349,486.00
319365,523.00
319381,552.00
319396,592.00
319412,603.00
319428,600.00
319444,627.00
319460,634.00
319475,651.00
319491,651.00
319507,648.00
319523,637.00
319539,617.00
319555,596.00
319570,588.00
319586,596.00
319602,591.00
319618,602.00
319634,604.00
319649,593.00
319665,595.00
319681,609.00
319697,608.00
319713,600.00
319729,604.00
319744,544.00
319759,512.00
319776,499.00
319792,473.00
319808,508.00
319823,782.00
319839,904.00
319855,246.00
319871,268.00
319887,384.00
319902,421.00
319918,449.00
319934,485.00
319950,507.00
319966,509.00
319982,482.00
319997,497.00
320013,504.00
320029,508.00
320045,489.00
320061,440.00
320076,394.00
320092,350.00
320108,320.00
320124,314.00
320140,326.00
320156,333.00
320171,332.00
320187,336.00
320203,342.00
320219,377.00
320235,386.00
320250,402.00
320266,402.00
320282,388.00
320298,367.00
320314,366.00
320330,380.00
320345,381.00
320361,558.00
320377,933.00
320393,313.00
320409,236.00
320424,328.00
320440,470.00
320456,442.00
320472,470.00
320488,484.00
320504,506.00
320519,487.00
320535,526.00
320551,537.00
320567,552.00
320583,557.00
320598,556.00
320614,517.00
320630,516.00
320646,483.00
320662,492.00
320678,489.00
320693,514.00
320709,544.00
320725,558.00
320741,567.00
320757,577.00
320772,590.00
320788,615.00
320804,615.00
320820,591.00
320836,559.00
320852,537.00
320867,535.00
320883,542.00
320899,726.00
320915,1015.00
320931,400.00
320946,325.00
320962,393.00
320978,502.00
320994,535.00
321010,583.00
321026,561.00
321041,530.00
321057,534.00
321073,584.00
321089,604.00
321105,601.00
321120,591.00
321136,612.00
321152,592.00
321168,554.00
321184,535.00
321200,552.00
321215,576.00
321231,561.00
321247,558.00
321263,561.00
321279,555.00
321294,543.00
321310,579.00
321326,596.00
321342,597.00
321358,582.00
321374,517.00
321389,463.00
321405,449.00
321421,445.00
321437,473.00
321453,774.00
321469,905.00
321484,278.00
321500,293.00
321516,428.00
321532,482.00
321548,507.00
321563,536.00
321579,567.00
321595,577.00
321611,592.00
321627,627.00
321642,642.00
321658,641.00
321674,639.00
321690,622.00
321706,591.00
321722,605.00
321737,628.00
321753,612.00
321769,562.00
321785,500.00
321801,456.00
321816,463.00
321832,500.00
321848,524.00
321864,542.00
321880,590.00
321896,609.00
321911,629.00
321927,629.00
321943,597.00
321959,559.00
321975,536.00
321990,516.00
322006,502.00
322022,733.00
322038,1024.00
322054,361.00
322070,332.00
322085,478.00
322101,529.00
322117,519.00
322133,525.00
322149,540.00
322164,547.00
322180,545.00
322196,564.00
322212,582.00
322228,602.00
322244,561.00
322259,572.00
322275,567.00
322291,536.00
322307,532.00
322323,536.00
322338,533.00
322354,534.00
322370,509.00
322386,486.00
322402,452.00
322418,477.00
322433,486.00
322449,494.00
322465,525.00
322481,554.00
322497,555.00
322512,548.00
322528,524.00
322544,493.00
322560,494.00
322576,502.00
322592,499.00
322607,672.00
322623,1024.00
322639,493.00
322655,326.00
322671,477.00
322686,559.00
322702,558.00
322718,574.00
322734,588.00
322750,579.00
322766,585.00
322781,579.00
322797,588.00
322813,584.00
322829,577.00
322845,584.00
322860,568.00
322876,553.00
322892,536.00
322908,537.00
322924,549.00
322940,561.00
322955,559.00
322971,508.00
322987,507.00
323003,518.00
323019,522.00
323034,521.00
323050,519.00
323066,564.00
323082,572.00
323098,537.00
323114,557.00
323129,521.00
323145,495.00
323161,487.00
323177,468.00
323193,567.00
323208,937.00
323224,728.00
323240,280.00
323256,378.00
323272,486.00
323288,490.00
323303,525.00
323319,534.00
323335,555.00
323351,559.00
323367,566.00
323382,579.00
323398,588.00
323414,577.00
323430,577.00
323446,581.00
323461,550.00
323477,512.00
323493,520.00
323509,537.00
323525,534.00
323541,530.00
323556,521.00
323572,517.00
323588,517.00
323604,518.00
323620,489.00
323636,483.00
323651,502.00
323667,511.00
323683,493.00
323699,483.00
323715,418.00
323730,386.00
323746,376.00
323762,326.00
323778,466.00
323794,920.00
323810,524.00
323825,144.00
323841,175.00
323857,281.00
323873,197.00
323889,193.00
323904,180.00
323920,60.00
323936,19.00
323952,145.00
323968,328.00
323983,672.00
323999,828.00
324015,864.00
324031,924.00
324047,600.00
324063,501.00
324078,604.00
324094,858.00
324110,890.00
324126,789.00
324142,565.00
324157,417.00
324173,322.00
324189,209.00
324205,200.00
324221,252.00
324237,338.00
324252,401.00
324268,484.00
324284,516.00
324300,507.00
324316,489.00
324331,541.00
324347,982.00
324363,845.00
324379,436.00
324395,325.00
324411,165.00
324426,208.00
324442,327.00
324458,177.00
324474,356.00
324490,571.00
324505,689.00
324521,717.00
324537,938.00
324553,1011.00
324569,1024.00
324585,1024.00
324600,1024.00
324616,377.00
324632,159.00
324648,225.00
324664,266.00
324679,576.00
324695,580.00
324711,18.00
324727,15.00
324743,10.00
324759,12.00
324774,181.00
324790,784.00
324806,797.00
324822,484.00
324838,618.00
324853,840.00
324869,1024.00
324885,1024.00
324901,1024.00
324917,1024.00
324933,1024.00
324948,1024.00
324964,1024.00
324980,1024.00
324996,1024.00
325012,1024.00
325027,1024.00
325043,1024.00
325059,932.00
325075,848.00
325091,627.00
325107,394.00
325121,220.00
325138,14.00
325154,15.00
325170,15.00
325186,10.00
325201,12.00
325217,15.00
325233,12.00
325249,56.00
325265,454.00
325280,577.00
325296,710.00
325312,882.00
325328,1024.00
325344,1024.00
325360,985.00
325375,1024.00
325391,1024.00
325407,1024.00
325423,1024.00
325439,1024.00
325454,1024.00
325470,1024.00
325486,609.00
325502,92.00
325518,30.00
325534,14.00
325549,14.00
325565,12.00
325581,14.00
325597,12.00
325613,149.00
325628,298.00
325644,132.00
325660,499.00
325676,800.00
325692,928.00
325708,1024.00
325723,1010.00
325739,920.00
325755,997.00
325771,1024.00
325787,1024.00
325802,1024.00
325818,1024.00
325834,1024.00
325850,1024.00
325866,341.00
325882,15.00
325897,12.00
325913,289.00
325929,325.00
325945,559.00
325961,14.00
325976,15.00
325992,16.00
326008,10.00
326024,12.00
326040,292.00
326056,494.00
326071,795.00
326087,1024.00
326103,1024.00
326119,859.00
326135,449.00
326150,404.00
326166,626.00
326182,871.00
326198,1001.00
326214,968.00
326230,886.00
326245,709.00
326261,729.00
326277,1024.00
326293,1024.00
326309,1024.00
326324,751.00
326340,516.00
326356,524.00
326372,532.00
326388,583.00
326404,254.00
326419,76.00
326435,13.00
326451,15.00
326467,452.00
326483,973.00
326498,1024.00
326514,1024.00
326530,1024.00
326546,675.00
326562,505.00
326578,508.00
326593,621.00
326609,754.00
326625,675.00
326641,446.00
326657,411.00
326672,546.00
326688,653.00
326704,654.00
326720,674.00
326736,686.00
326752,644.00
326767,615.00
326783,514.00
326799,369.00
326815,300.00
326831,242.00
326846,244.00
326862,214.00
326878,135.00
326894,132.00
326910,177.00
326926,212.00
326941,305.00
326957,574.00
326973,510.00
326989,16.00
327005,10.00
327020,13.00
327036,15.00
327052,12.00
327068,252.00
327084,447.00
327099,520.00
327115,607.00
327131,646.00
327147,749.00
327163,795.00
327179,829.00
327194,828.00
327210,864.00
327226,848.00
327242,775.00
327258,694.00
327273,620.00
327288,597.00
327305,584.00
327321,603.00
327337,591.00
327353,597.00
327368,520.00
327384,432.00
327400,316.00
327416,313.00
327432,355.00
327447,391.00
327463,529.00
327479,929.00
327495,411.00
327511,149.00
327527,304.00
327542,392.00
327558,400.00
327574,449.00
327590,368.00
327606,274.00
327621,230.00
327637,368.00
327653,487.00
327669,548.00
327685,555.00
327701,553.00
327716,452.00
327732,310.00
327748,205.00
327764,291.00
327937,331.00
327948,281.00
327958,201.00
327969,177.00
327980,237.00
328136,448.00
328147,497.00
328157,488.00
328167,609.00
328178,628.00
328188,633.00
328198,589.00
328208,530.00
328218,505.00
328228,448.00
328239,364.00
328410,926.00
328421,872.00
328431,760.00
328441,630.00
328451,524.00
328461,496.00
328471,461.00
328481,477.00
328491,423.00
328501,433.00
328511,552.00
328521,796.00
328531,1024.00
328541,751.00
328551,451.00
328561,473.00
328571,569.00
328581,670.00
328591,734.00
328601,718.00
328611,699.00
328621,702.00
328631,685.00
328641,663.00
328651,622.00
328661,631.00
328671,735.00
328681,914.00
328691,1024.00
328701,982.00
328711,792.00
328721,593.00
328731,423.00
328741,421.00
328751,494.00
328761,465.00
328771,472.00
328781,474.00
328791,401.00
328801,344.00
328811,401.00
328821,457.00
328831,458.00
328841,508.00
328851,569.00
328861,614.00
328871,641.00
328881,656.00
328891,672.00
328901,685.00
328911,697.00
328921,658.00
328931,594.00
328941,541.00
328951,458.00
328966,365.00
328982,244.00
328997,190.00
329013,182.00
329029,230.00
329045,324.00
329061,641.00
329077,518.00
329092,15.00
329108,12.00
329124,165.00
329140,388.00
329156,483.00
329171,604.00
329187,656.00
329203,632.00
329219,656.00
329235,735.00
329251,843.00
329266,912.00
329282,769.00
329298,663.00
329314,586.00
329330,440.00
329345,396.00
329361,444.00
329377,657.00
329393,733.00
329409,699.00
329425,626.00
329440,555.00
329456,519.00
329472,532.00
329488,475.00
329504,351.00
329519,297.00
329535,290.00
329551,387.00
329567,505.00
329583,613.00
329599,865.00
329614,1024.00
329630,1024.00
329646,473.00
329662,543.00
329678,624.00
329693,603.00
329709,668.00
329725,673.00
329741,569.00
329757,427.00
329773,352.00
329788,189.00
329804,329.00
329820,605.00
329836,713.00
329852,711.00
329867,674.00
329883,686.00
329899,613.00
329915,549.00
329931,490.00
329947,460.00
329962,389.00
329978,308.00
329994,223.00
330010,249.00
330026,305.00
330041,349.00
330057,368.00
330073,310.00
330089,253.00
330105,176.00
330121,97.00
330136,27.00
330152,219.00
330168,528.00
330184,15.00
330200,14.00
330215,12.00
330231,13.00
330247,10.00
330263,237.00
330279,526.00
330295,681.00
330310,785.00
330326,867.00
330342,981.00
330358,1024.00
330374,990.00
330389,907.00
330405,813.00
330421,753.00
330437,747.00
330453,716.00
330468,657.00
330484,537.00
330500,488.00
330516,521.00
330532,618.00
330548,745.00
330563,1024.00
330579,1024.00
330595,1024.00
330611,1024.00
330627,1024.00
330643,496.00
330658,1024.00
330674,1024.00
330690,948.00
330706,701.00
330722,423.00
330737,810.00
330753,116.00
330769,10.00
330785,14.00
330801,13.00
330816,500.00
330832,459.00
330848,324.00
330864,437.00
330880,740.00
330896,614.00
330911,438.00
330927,1014.00
330943,1024.00
330959,960.00
330975,492.00
330990,321.00
331006,15.00
331022,10.00
331038,13.00
331054,15.00
331070,13.00
331085,10.00
331101,15.00
331117,10.00
331133,73.00
331149,12.00
331164,10.00
331180,12.00
331196,1024.00
331212,1024.00
331228,1024.00
331244,1024.00
331259,462.00
331275,981.00
331291,1024.00
331307,197.00
331323,285.00
331338,253.00
331354,94.00
331370,57.00
331386,194.00
331402,405.00
331418,608.00
331433,724.00
331448,786.00
331465,892.00
331481,962.00
331497,997.00
331512,1024.00
331528,892.00
331544,729.00
331560,572.00
331576,464.00
331592,364.00
331607,257.00
331623,162.00
331639,150.00
331655,224.00
331671,331.00
331686,361.00
331702,373.00
331718,384.00
331734,384.00
331750,451.00
331766,520.00
331781,533.00
331797,509.00
331813,708.00
331829,1024.00
331845,616.00
331860,399.00
331876,493.00
331892,605.00
331908,614.00
331924,612.00
331940,600.00
331955,614.00
331971,620.00
331987,562.00
332003,548.00
332019,529.00
332034,493.00
332050,480.00
332066,480.00
332082,509.00
332098,536.00
332114,577.00
332129,591.00
332145,598.00
332161,618.00
332177,655.00
332193,678.00
332208,746.00
332224,818.00
332240,829.00
332256,771.00
332272,715.00
332288,608.00
332303,573.00
332319,536.00
332335,524.00
332351,657.00
332367,1024.00
332382,783.00
332398,305.00
332414,420.00
332430,565.00
332446,598.00
332461,601.00
332477,629.00
332493,637.00
332509,641.00
332525,637.00
332541,651.00
332556,649.00
332572,640.00
332588,621.00
332604,591.00
332620,530.00
332635,497.00
332651,462.00
332667,460.00
332683,459.00
332699,468.00
332715,440.00
332730,432.00
332746,422.00
332762,458.00
332778,453.00
332794,447.00
332809,433.00
332825,361.00
332841,281.00
332857,228.00
332873,193.00
332889,237.00
332904,529.00
332920,705.00
332936,62.00
332952,135.00
332968,318.00
332983,364.00
332999,386.00
333015,405.00
333031,415.00
333047,425.00
333063,454.00
333078,529.00
333094,596.00
333110,656.00
333126,690.00
333142,699.00
333157,677.00
333173,649.00
333189,676.00
333205,712.00
333221,713.00
333237,726.00
333252,711.00
333268,680.00
333284,652.00
333300,650.00
333316,673.00
333331,674.00
333347,668.00
333363,638.00
333379,560.00
333395,522.00
333411,493.00
333426,487.00
333442,579.00
333458,929.00
333474,649.00
333490,228.00
333505,303.00
333521,397.00
333537,417.00
333553,420.00
333569,445.00
333585,437.00
333600,424.00
333616,417.00
333632,432.00
333648,457.00
333664,468.00
333679,496.00
333695,486.00
333711,462.00
333727,422.00
333743,412.00
333759,434.00
333774,451.00
333790,464.00
333806,475.00
333822,480.00
333838,482.00
333853,509.00
333869,538.00
333885,544.00
333901,555.00
333917,522.00
333932,484.00
333948,476.00
333964,471.00
333980,463.00
333996,673.00
334012,954.00
334027,366.00
334043,268.00
334059,375.00
334075,471.00
334091,485.00
334106,519.00
334122,547.00
334138,545.00
334154,545.00
334170,561.00
334186,577.00
334201,569.00
334217,585.00
334233,577.00
334249,552.00
334265,540.00
334280,523.00
334296,547.00
334312,557.00
334328,561.00
334344,572.00
334360,564.00
334375,552.00
334391,564.00
334407,592.00
334423,592.00
334439,593.00
334454,585.00
334470,543.00
334486,524.00
334502,530.00
334518,518.00
334534,612.00
334549,981.00
334565,718.00
334581,342.00
334597,426.00
334613,552.00
334628,571.00
334644,591.00
334660,596.00
334676,626.00
334692,610.00
334708,612.00
334723,637.00
334739,642.00
334755,640.00
334771,625.00
334787,626.00
334802,595.00
334818,572.00
334834,579.00
334850,571.00
334866,590.00
334882,586.00
334897,577.00
334913,582.00
334929,576.00
334945,596.00
334961,602.00
334976,606.00
334992,619.00
335008,589.00
335024,544.00
335040,536.00
335056,508.00
335071,496.00
335087,700.00
335103,982.00
335119,340.00
335135,261.00
335150,437.00
335166,449.00
335182,465.00
335198,478.00
335214,493.00
335230,494.00
335245,473.00
335261,468.00
335277,478.00
335293,493.00
335309,484.00
335324,500.00
335340,489.00
335356,468.00
335372,459.00
335388,466.00
335404,478.00
335419,466.00
335435,472.00
335451,461.00
335467,444.00
335483,437.00
335498,481.00
335514,481.00
335530,456.00
335546,440.00
335562,369.00
335578,322.00
335593,312.00
335609,289.00
335625,324.00
335641,639.00
335657,722.00
335672,128.00
335688,178.00
335704,361.00
335720,426.00
335736,483.00
335752,566.00
335767,616.00
335783,632.00
335799,607.00
335815,617.00
335831,564.00
335846,553.00
335862,514.00
335878,475.00
335894,516.00
335910,564.00
335926,650.00
335941,690.00
335957,639.00
335973,555.00
335989,554.00
336005,590.00
336020,585.00
336036,578.00
336052,606.00
336068,593.00
336084,543.00
336099,505.00
336115,454.00
336131,423.00
336147,415.00
336163,391.00
336179,417.00
336194,702.00
336210,661.00
336226,125.00
336242,187.00
336258,328.00
336274,358.00
336289,360.00
336305,390.00
336321,415.00
336337,430.00
336353,464.00
336368,484.00
336384,494.00
336400,470.00
336416,457.00
336432,490.00
336448,509.00
336463,541.00
336479,596.00
336495,580.00
336511,530.00
336527,476.00
336542,458.00
336558,465.00
336574,513.00
336590,533.00
336606,531.00
336622,445.00
336637,380.00
336653,286.00
336669,300.00
336685,326.00
336701,378.00
336716,549.00
336732,1009.00
336748,1024.00
336764,661.00
336780,717.00
336795,660.00
336811,581.00
336827,567.00
336843,936.00
336859,1024.00
336875,1024.00
336890,1024.00
336906,1024.00
336922,951.00
336938,929.00
336954,906.00
336969,744.00
336985,616.00
337001,374.00
337017,169.00
337033,12.00
337049,10.00
337064,15.00
337080,25.00
337096,188.00
337112,237.00
337128,387.00
337143,495.00
337159,538.00
337175,597.00
337191,428.00
337207,337.00
337223,242.00
337238,192.00
337254,225.00
337270,573.00
337286,622.00
337302,188.00
337317,243.00
337333,330.00
337349,358.00
337365,380.00
337381,485.00
337397,605.00
337412,673.00
337428,698.00
337444,703.00
337460,721.00
337476,672.00
337491,674.00
337507,710.00
337523,760.00
337539,723.00
337555,737.00
337571,696.00
337586,608.00
337602,592.00
337618,631.00
337634,622.00
337650,613.00
337665,574.00
337681,578.00
337697,597.00
337713,648.00
337729,582.00
337744,487.00
337760,394.00
337776,350.00
337792,582.00
337808,1009.00
337824,888.00
337839,457.00
337855,505.00
337871,552.00
337887,439.00
337903,372.00
337918,332.00
337934,297.00
337950,225.00
337966,212.00
337982,306.00
337998,421.00
338013,512.00
338029,538.00
338045,528.00
338061,490.00
338077,475.00
338092,458.00
338108,459.00
338124,484.00
338140,466.00
338156,404.00
338172,399.00
338187,486.00
338203,578.00
338219,652.00
338235,745.00
338251,715.00
338266,828.00
338282,907.00
338298,895.00
338314,837.00
338330,1024.00
338346,1024.00
338361,1021.00
338377,716.00
338393,644.00
338409,557.00
338425,454.00
338440,438.00
338456,15.00
338472,10.00
338488,14.00
338504,15.00
338520,536.00
350326,1024.00
350337,1024.00
350347,1024.00
350357,1024.00
350367,1024.00
350377,1024.00
350387,1024.00
350397,1024.00
350407,1024.00
350417,1024.00
350427,1024.00
350437,1024.00
350447,1024.00
350457,1024.00
350467,1024.00
350477,1024.00
350487,1024.00
350497,1024.00
350507,1024.00
350517,1024.00
350527,1024.00
350537,1024.00
350547,1024.00
350557,1024.00
350567,1024.00
350577,535.00
350587,388.00
350597,350.00
350607,473.00
350617,747.00
350627,853.00
350637,314.00
350647,15.00
350657,15.00
350667,14.00
350677,14.00
350687,93.00
350697,249.00
350707,183.00
350717,140.00
350727,225.00
350737,368.00
350747,446.00
350757,484.00
350767,524.00
350777,558.00
350787,517.00
350797,489.00
350807,549.00
350817,567.00
350827,546.00
350837,484.00
350847,411.00
350858,279.00
350873,153.00
350889,63.00
350905,14.00
350921,12.00
350937,14.00
350953,81.00
350968,122.00
350984,204.00
351000,182.00
351016,69.00
351032,12.00
351047,212.00
351063,405.00
351079,396.00
351095,573.00
351111,933.00
351127,171.00
351142,15.00
351158,196.00
351174,283.00
351190,325.00
351206,415.00
351221,512.00
351237,521.00
351253,631.00
351269,741.00
351285,725.00
351300,723.00
351316,751.00
351332,668.00
351348,557.00
351364,500.00
351380,508.00
351395,557.00
351411,597.00
351427,664.00
351443,795.00
351459,834.00
351474,843.00
351490,869.00
351506,769.00
351522,705.00
351538,636.00
351554,573.00
351569,608.00
351585,895.00
351601,920.00
351617,310.00
351633,350.00
351648,473.00
351664,494.00
351680,521.00
351696,542.00
351712,549.00
351728,524.00
351743,509.00
351759,510.00
351775,533.00
351791,544.00
351807,543.00
351823,499.00
351838,414.00
351854,381.00
351870,365.00
351886,366.00
351902,391.00
351917,430.00
351933,463.00
351949,519.00
351965,473.00
351981,432.00
351997,356.00
352012,368.00
352028,401.00
352044,399.00
352060,544.00
352076,998.00
352091,448.00
352107,222.00
352123,444.00
352139,547.00
352155,535.00
352171,571.00
352186,665.00
352202,650.00
352218,625.00
352234,626.00
352250,660.00
352265,655.00
352281,633.00
352297,622.00
352313,624.00
352329,625.00
352345,640.00
352360,658.00
352376,677.00
352392,714.00
352408,766.00
352424,753.00
352440,721.00
352727,337.00
352738,152.00
352748,104.00
352758,196.00
352768,330.00
352778,425.00
352788,470.00
352798,456.00
352808,457.00
352818,441.00
352828,382.00
352838,375.00
352848,367.00
353065,20.00
353076,12.00
353086,14.00
353096,169.00
353106,325.00
353116,368.00
353126,374.00
353136,388.00
353146,399.00
353156,403.00
353166,393.00
353177,401.00
353187,411.00
353197,456.00
353207,484.00
353217,488.00
353227,483.00
353237,468.00
353247,474.00
353257,509.00
353267,502.00
353277,513.00
353287,499.00
353297,483.00
353307,475.00
353317,482.00
353327,500.00
353337,504.00
353347,521.00
353357,526.00
353367,499.00
353377,457.00
353387,414.00
353397,338.00
353407,348.00
353417,363.00
353427,464.00
353437,537.00
353447,499.00
353457,493.00
353467,547.00
353477,596.00
353487,653.00
353497,680.00
353507,653.00
353517,806.00
353527,1024.00
353537,1024.00
353547,903.00
353557,544.00
353567,530.00
353577,548.00
353587,596.00
353597,625.00
353607,651.00
353617,685.00
353627,715.00
353642,759.00
353657,785.00
353673,838.00
353689,823.00
353705,764.00
353721,728.00
353737,677.00
353752,685.00
353768,681.00
353784,680.00
353800,672.00
353816,651.00
353831,702.00
353847,793.00
353863,786.00
353879,677.00
353895,670.00
353911,677.00
353926,699.00
353942,710.00
353958,702.00
353974,680.00
353990,595.00
354005,805.00
354021,1024.00
354037,425.00
354053,351.00
354069,445.00
354085,462.00
354100,458.00
354116,375.00
354132,367.00
354148,339.00
354164,328.00
354179,349.00
354195,409.00
354211,459.00
354227,430.00
354243,368.00
354259,362.00
354274,398.00
354290,364.00
354306,350.00
354322,296.00
354338,219.00
354353,186.00
354369,197.00
354385,101.00
354401,15.00
354417,48.00
354433,98.00
354448,223.00
354464,340.00
354480,384.00
354496,708.00
354512,733.00
354527,178.00
354543,121.00
354559,193.00
354575,269.00
354591,320.00
354607,391.00
354622,493.00
354638,608.00
354654,893.00
354670,994.00
354686,1024.00
354701,1024.00
354717,1024.00
354733,1024.00
354749,1024.00
354765,1024.00
354780,1024.00
354796,1024.00
354812,845.00
354828,656.00
354844,524.00
354860,329.00
354875,222.00
354891,15.00
354907,15.00
354923,14.00
354939,10.00
354954,12.00
354970,286.00
354986,1024.00
355002,684.00
355018,15.00
355034,12.00
355049,13.00
355065,116.00
355081,631.00
355097,772.00
355113,828.00
355128,922.00
355144,912.00
355160,606.00
355176,256.00
355192,15.00
355208,15.00
355223,111.00
355239,84.00
355255,13.00
355271,714.00
355287,980.00
355302,1024.00
355318,932.00
355334,466.00
355350,13.00
355366,601.00
355382,825.00
355397,781.00
355413,530.00
355429,481.00
355445,1024.00
355461,1024.00
355476,1024.00
355492,1024.00
355508,816.00
355524,1024.00
355540,1024.00
355556,1024.00
355571,10.00
355587,12.00
355603,12.00
355619,15.00
355635,14.00
355650,10.00
355666,246.00
355682,692.00
355698,482.00
355714,468.00
355730,682.00
355745,744.00
355761,192.00
355777,14.00
355793,13.00
355809,14.00
355824,31.00
355840,615.00
355856,766.00
355872,305.00
355888,196.00
355903,1024.00
355919,1024.00
355935,1024.00
355951,437.00
355967,216.00
355983,453.00
355998,477.00
356014,492.00
356030,462.00
356046,362.00
356062,464.00
356077,285.00
356093,14.00
356109,1024.00
356125,1024.00
356141,1024.00
356157,1024.00
356172,1024.00
356188,1024.00
356204,736.00
356220,891.00
356236,828.00
356251,664.00
356267,480.00
356283,396.00
356299,372.00
356315,321.00
356331,240.00
356346,282.00
356362,429.00
356378,726.00
356394,1024.00
356410,1024.00
356425,1024.00
356441,1024.00
356457,1024.00
356473,1024.00
356489,1024.00
356505,1024.00
356520,1024.00
356536,1024.00
356552,578.00
356568,12.00
356584,13.00
356599,14.00
356615,12.00
356631,308.00
356647,460.00
356663,888.00
356679,878.00
356694,665.00
356710,471.00
356726,413.00
356742,653.00
356758,844.00
356773,914.00
356789,374.00
356805,13.00
356821,13.00
356837,12.00
356853,15.00
356868,14.00
356884,307.00
356900,15.00
356916,12.00
356932,12.00
356947,75.00
356963,328.00
356979,319.00
356995,377.00
357011,351.00
357027,427.00
357042,673.00
357058,296.00
357074,127.00
357090,249.00
357106,531.00
357121,734.00
357137,982.00
357153,970.00
357169,854.00
357185,1024.00
357200,1024.00
357216,1024.00
357232,1024.00
357248,1024.00
357264,261.00
357280,605.00
357295,1024.00
357311,1024.00
357327,1024.00
357343,1024.00
357359,1024.00
357374,1024.00
357390,663.00
357406,373.00
357422,152.00
357438,271.00
357454,186.00
357469,34.00
357485,12.00
357501,13.00
357517,12.00
357533,246.00
357548,337.00
357564,353.00
357580,339.00
357596,277.00
357612,280.00
357628,355.00
357643,453.00
357659,564.00
357675,553.00
357691,566.00
357707,469.00
357722,406.00
357738,387.00
357754,429.00
357770,432.00
357786,706.00
357802,748.00
357817,153.00
357833,238.00
357849,468.00
357865,595.00
357881,642.00
357896,663.00
357912,672.00
357928,690.00
357944,721.00
357960,771.00
357976,794.00
357991,799.00
358007,744.00
358023,699.00
358039,768.00
358055,842.00
358070,914.00
358086,825.00
358102,772.00
358118,670.00
358134,658.00
358150,734.00
358165,744.00
358181,681.00
358197,653.00
358213,666.00
358229,668.00
358244,962.00
358260,1024.00
358276,325.00
358292,328.00
358308,424.00
358323,458.00
358339,510.00
358355,710.00
358371,820.00
358387,792.00
358403,721.00
358418,697.00
358434,679.00
358450,633.00
358466,616.00
358482,555.00
358498,499.00
358513,429.00
358529,373.00
358545,346.00
358561,369.00
358577,410.00
358592,417.00
358608,440.00
358624,477.00
358640,446.00
358656,446.00
358671,417.00
358687,413.00
358703,601.00
358719,889.00
358735,146.00
358751,72.00
358766,204.00
358782,204.00
358798,194.00
358814,193.00
358830,260.00
358845,252.00
358861,65.00
358877,93.00
358893,282.00
358909,466.00
358925,546.00
358940,442.00
358956,485.00
358972,607.00
358988,634.00
359004,553.00
359019,538.00
359035,728.00
359051,890.00
359067,897.00
359083,747.00
359099,522.00
359114,320.00
359130,177.00
359146,106.00
359162,237.00
359178,650.00
359193,331.00
359209,10.00
359225,13.00
359241,252.00
359257,297.00
359273,308.00
359288,309.00
359304,300.00
359320,322.00
359336,342.00
359352,402.00
359367,485.00
359383,488.00
359399,452.00
359415,426.00
359431,482.00
359447,626.00
359462,732.00
359478,724.00
359494,752.00
359510,804.00
359526,800.00
359541,729.00
359557,653.00
359573,602.00
359589,644.00
359605,600.00
359621,526.00
359636,771.00
359652,1024.00
359668,315.00
359684,339.00
359700,519.00
359715,589.00
359731,582.00
359747,546.00
359763,481.00
359779,450.00
359795,436.00
359810,438.00
359826,468.00
359842,517.00
359858,561.00
359874,581.00
359889,545.00
359905,496.00
359921,484.00
359937,464.00
359953,429.00
359969,356.00
359984,304.00
360000,312.00
360016,567.00
360032,631.00
360048,516.00
360063,426.00
360079,448.00
360095,654.00
360111,1024.00
360127,1024.00
360143,604.00
360158,705.00
360174,792.00
360190,672.00
360206,593.00
360222,553.00
360237,468.00
360253,375.00
360269,349.00
360285,386.00
360301,404.00
360317,422.00
360332,528.00
360348,675.00
360364,663.00
360380,463.00
360396,317.00
360411,45.00
360427,15.00
360443,511.00
360459,728.00
360475,907.00
360491,912.00
360506,944.00
360522,914.00
360538,904.00
360554,813.00
360570,965.00
360586,1024.00
360601,794.00
360617,524.00
360633,571.00
360649,505.00
360665,485.00
360680,459.00
360696,391.00
360712,291.00
360728,230.00
360744,175.00
360760,217.00
360775,274.00
360791,356.00
360807,428.00
360823,430.00
360839,410.00
360854,406.00
360870,422.00
360886,449.00
360902,466.00
360918,483.00
360934,510.00
360949,531.00
360965,524.00
360981,449.00
360997,401.00
361013,344.00
361028,346.00
361044,624.00
361060,968.00
361076,327.00
361092,345.00
361108,506.00
361123,534.00
361139,559.00
361155,586.00
361171,604.00
361187,588.00
361202,578.00
361218,591.00
361234,594.00
361250,601.00
361266,578.00
361282,540.00
361297,535.00
361313,522.00
361329,520.00
361345,517.00
361361,509.00
361376,543.00
361392,627.00
361408,658.00
361424,704.00
361440,704.00
361456,646.00
361471,642.00
361487,649.00
361503,675.00
361519,1024.00
361535,1024.00
361550,698.00
361566,500.00
361582,636.00
361598,578.00
361614,555.00
361629,579.00
361645,530.00
361661,507.00
361677,471.00
361693,444.00
361709,446.00
361724,461.00
361740,508.00
361756,520.00
361772,514.00
361788,511.00
361803,524.00
361819,545.00
361835,508.00
361851,486.00
361867,422.00
361883,447.00
361898,291.00
361914,223.00
361930,274.00
361946,494.00
361962,625.00
361977,634.00
361993,389.00
362009,153.00
362025,10.00
362041,12.00
362057,10.00
362072,15.00
362088,29.00
362104,15.00
362120,15.00
362136,271.00
362151,182.00
362167,362.00
362183,591.00
362199,573.00
362215,655.00
362231,903.00
362246,1024.00
362262,1024.00
362278,1024.00
362294,975.00
362310,676.00
362325,538.00
362341,532.00
362357,451.00
362373,542.00
362389,783.00
362405,837.00
362420,982.00
362436,1024.00
362452,1024.00
362468,1024.00
362484,1024.00
362500,360.00
362515,10.00
362531,200.00
362547,848.00
362563,684.00
362579,816.00
362594,1024.00
362610,1024.00
362626,1024.00
362642,1024.00
362658,1024.00
362673,328.00
362689,16.00
362705,14.00
362721,501.00
362737,463.00
362753,495.00
362768,629.00
362784,1022.00
362800,1009.00
362816,643.00
362832,378.00
362847,78.00
362863,13.00
362879,10.00
362895,205.00
362911,15.00
362927,15.00
362942,12.00
362958,1024.00
362974,376.00
362990,237.00
363006,358.00
363021,12.00
363037,13.00
363053,521.00
363069,543.00
363085,552.00
363101,789.00
363116,881.00
363132,79.00
363148,12.00
363164,12.00
363180,18.00
363195,15.00
363211,10.00
363227,12.00
363243,14.00
363259,939.00
363275,840.00
363290,636.00
363306,261.00
363322,134.00
363338,450.00
363354,713.00
363369,846.00
363385,781.00
363401,1024.00
363417,1024.00
363433,516.00
363707,1024.00
363718,1024.00
363728,1024.00
363738,1024.00
363749,1024.00
363759,1024.00
363769,1024.00
364131,10.00
364142,12.00
364152,12.00
364162,10.00
364172,14.00
364182,15.00
364192,12.00
364202,10.00
364212,13.00
364222,10.00
364232,10.00
364242,15.00
364252,10.00
364262,151.00
364272,835.00
365470,633.00
365481,629.00
365491,584.00
365501,554.00
365511,528.00
365521,535.00
365531,559.00
365541,572.00
365551,613.00
365561,610.00
365571,580.00
365581,564.00
365591,577.00
365601,571.00
365611,572.00
365621,579.00
365631,573.00
365641,547.00
365651,513.00
365661,521.00
365671,569.00
365681,582.00
365691,556.00
365701,573.00
365711,670.00
365721,904.00
365731,1024.00
365741,673.00
365751,302.00
365761,330.00
365771,448.00
365781,597.00
365791,644.00
365801,598.00
365811,548.00
365821,514.00
365831,541.00
365841,581.00
365851,582.00
365861,571.00
365871,592.00
365881,651.00
365891,709.00
365901,748.00
365911,746.00
365921,715.00
365931,699.00
365941,698.00
365951,711.00
365961,708.00
365971,697.00
365981,689.00
365991,657.00
366001,632.00
366011,616.00
366027,564.00
366043,544.00
366059,524.00
366074,546.00
366090,579.00
366106,529.00
366122,468.00
366138,438.00
366153,423.00
366169,532.00
366185,949.00
366201,813.00
366217,276.00
366233,324.00
366248,380.00
366264,348.00
366280,306.00
366296,290.00
366312,241.00
366327,247.00
366343,283.00
366359,312.00
366375,295.00
366391,272.00
366406,225.00
366422,163.00
366438,141.00
366454,140.00
366470,182.00
366486,207.00
366501,232.00
366517,261.00
366533,331.00
366549,348.00
366565,125.00
366580,10.00
366596,12.00
366612,15.00
366628,12.00
366644,158.00
366660,795.00
366675,244.00
366691,224.00
366707,411.00
366723,433.00
366739,435.00
366754,445.00
366770,493.00
366786,541.00
366802,591.00
366818,651.00
366834,694.00
366849,684.00
366865,673.00
366881,662.00
366897,641.00
366913,648.00
366928,680.00
366944,697.00
366960,726.00
366976,762.00
366992,780.00
367008,786.00
367023,775.00
367039,708.00
367055,676.00
367071,700.00
367087,703.00
367102,787.00
367118,1024.00
367134,1012.00
367150,496.00
367166,570.00
367182,656.00
367197,638.00
367213,641.00
367229,616.00
367245,614.00
367261,620.00
367276,622.00
367292,637.00
367308,652.00
367324,732.00
367340,802.00
367356,808.00
367371,798.00
367387,811.00
367403,797.00
367419,775.00
367435,775.00
367450,781.00
367466,798.00
367482,832.00
367498,836.00
367514,834.00
367530,864.00
367545,843.00
367561,782.00
367577,975.00
367593,1024.00
367609,436.00
367624,461.00
367640,607.00
367656,609.00
367672,570.00
367688,537.00
367704,441.00
367719,364.00
367735,336.00
367751,304.00
367767,206.00
367783,193.00
367798,194.00
367814,168.00
367830,186.00
367846,162.00
367862,226.00
367878,233.00
367893,307.00
367910,340.00
367925,342.00
367941,475.00
367957,487.00
367973,410.00
367988,394.00
368004,382.00
368020,326.00
368036,442.00
368052,885.00
368067,605.00
368083,162.00
368099,331.00
368115,380.00
368131,429.00
368147,427.00
368162,477.00
368178,453.00
368194,508.00
368210,638.00
368226,654.00
368241,627.00
368257,723.00
368273,799.00
368289,668.00
368305,520.00
368321,416.00
368336,378.00
368352,434.00
368368,584.00
368384,737.00
368400,772.00
368415,723.00
368431,645.00
368447,485.00
368463,381.00
368479,334.00
368495,260.00
368510,418.00
368526,752.00
368542,130.00
368558,12.00
368574,50.00
368589,139.00
368605,161.00
368621,201.00
368637,248.00
368653,284.00
368669,322.00
368684,387.00
368700,441.00
368716,481.00
368732,521.00
368748,565.00
368763,585.00
368779,610.00
368795,610.00
368811,614.00
368827,601.00
368843,597.00
368858,598.00
368874,586.00
368890,559.00
368906,526.00
368922,495.00
368937,488.00
368953,519.00
368969,495.00
368985,804.00
369001,1024.00
369017,472.00
369032,487.00
369048,633.00
369064,680.00
369080,692.00
369096,691.00
369111,682.00
369127,656.00
369143,619.00
369159,606.00
369175,628.00
369191,651.00
369206,686.00
369222,675.00
369238,663.00
369254,652.00
369270,640.00
369285,619.00
369301,626.00
369317,621.00
369333,625.00
369349,612.00
369365,595.00
369380,542.00
369396,481.00
369412,493.00
369428,480.00
369444,518.00
369459,879.00
369475,850.00
369491,377.00
369507,447.00
369523,574.00
369539,577.00
369554,604.00
369570,602.00
369586,547.00
369602,542.00
369618,554.00
369633,570.00
369649,572.00
369665,560.00
369681,572.00
369697,559.00
369712,550.00
369728,533.00
369744,509.00
369760,501.00
369776,502.00
369792,530.00
369807,544.00
369823,533.00
369839,526.00
369855,474.00
369871,446.00
369886,446.00
369902,401.00
369918,475.00
369934,895.00
369950,520.00
369966,210.00
369981,266.00
369997,355.00
370013,353.00
370029,420.00
370045,483.00
370060,511.00
370076,519.00
370092,521.00
370108,500.00
370124,487.00
370140,518.00
370155,562.00
370171,576.00
370187,559.00
370203,576.00
370219,579.00
370234,591.00
370250,603.00
370266,619.00
370282,609.00
370298,577.00
370314,543.00
370329,464.00
370345,438.00
370361,423.00
370377,375.00
370393,555.00
370408,1024.00
370424,449.00
370440,270.00
370456,440.00
370472,490.00
370488,471.00
370503,475.00
370519,480.00
370535,483.00
370551,497.00
370567,510.00
370582,487.00
370598,478.00
370614,477.00
370630,500.00
370646,505.00
370662,519.00
370677,559.00
370693,576.00
370709,555.00
370725,535.00
370741,535.00
370756,542.00
370772,549.00
370788,574.00
370804,542.00
370820,572.00
370836,581.00
370851,531.00
370867,725.00
370883,1024.00
370899,610.00
370915,372.00
370930,492.00
370946,521.00
370962,500.00
370978,582.00
370994,669.00
371010,675.00
371025,604.00
371041,557.00
371057,541.00
371073,567.00
371089,601.00
371104,653.00
371120,639.00
371136,601.00
371152,613.00
371168,613.00
371184,625.00
371199,601.00
371215,628.00
371231,628.00
371247,606.00
371263,543.00
371278,424.00
371294,318.00
371310,204.00
371326,52.00
371342,178.00
371358,621.00
371373,152.00
371389,12.00
371405,41.00
371421,168.00
371437,180.00
371452,209.00
371468,241.00
371484,254.00
371500,309.00
371516,387.00
371532,410.00
371547,466.00
371563,526.00
371579,584.00
371595,605.00
371611,625.00
371626,636.00
371642,608.00
371658,548.00
371674,511.00
371690,489.00
371706,498.00
371721,486.00
371737,496.00
371753,436.00
371769,421.00
371785,456.00
371800,468.00
371816,583.00
371832,1024.00
371848,698.00
371864,402.00
371880,485.00
371895,618.00
371911,632.00
371927,653.00
371943,652.00
371959,615.00
371974,601.00
371990,613.00
372006,608.00
372022,602.00
372038,627.00
372053,617.00
372069,598.00
372085,590.00
372101,589.00
372117,607.00
372133,621.00
372148,639.00
372164,680.00
372180,693.00
372196,704.00
372212,709.00
372228,678.00
372243,632.00
372259,622.00
372275,580.00
372291,615.00
372307,1001.00
372322,862.00
372338,363.00
372354,427.00
372370,553.00
372386,554.00
372401,576.00
372417,608.00
372433,613.00
372449,612.00
372465,601.00
372481,612.00
372496,628.00
372512,673.00
372528,705.00
372544,699.00
372560,673.00
372575,658.00
372591,648.00
372607,662.00
372623,681.00
372639,717.00
372655,717.00
372670,699.00
372686,654.00
372702,580.00
372718,489.00
372734,475.00
372749,452.00
372765,454.00
372781,842.00
372797,962.00
372813,297.00
372829,373.00
372844,488.00
372860,462.00
372876,481.00
372892,505.00
372908,532.00
372923,505.00
372939,483.00
372955,475.00
372971,476.00
372987,459.00
373003,445.00
373018,459.00
373034,460.00
373050,483.00
373066,478.00
373082,472.00
373097,458.00
373113,462.00
373129,484.00
373145,477.00
373161,485.00
373176,468.00
373192,400.00
373208,401.00
373224,414.00
373240,367.00
373256,620.00
373271,1023.00
373287,380.00
373303,240.00
373319,410.00
373335,454.00
373350,472.00
373366,475.00
373382,514.00
373398,502.00
373414,510.00
373430,512.00
373445,512.00
373461,508.00
373477,520.00
373493,507.00
373509,485.00
373525,480.00
373540,482.00
373556,470.00
373572,459.00
373588,438.00
373604,433.00
373619,423.00
373635,406.00
373651,418.00
373667,350.00
373683,320.00
373699,282.00
373714,244.00
373730,253.00
373746,689.00
373762,541.00
373778,14.00
373793,211.00
373809,410.00
373825,450.00
373841,473.00
373857,508.00
373873,536.00
373888,536.00
373904,475.00
373920,435.00
373936,421.00
373952,456.00
373967,458.00
373983,438.00
373999,412.00
374015,421.00
374031,468.00
374047,499.00
374062,470.00
374078,473.00
374094,444.00
374110,461.00
374126,522.00
374141,541.00
374157,437.00
374173,398.00
374189,402.00
374205,400.00
374221,574.00
374236,1001.00
374252,470.00
374268,336.00
374284,504.00
374300,590.00
374315,596.00
374331,580.00
374347,586.00
374363,595.00
374379,594.00
374395,630.00
374410,682.00
374426,753.00
374442,761.00
374458,758.00
374474,688.00
374489,637.00
374505,606.00
374521,643.00
374537,706.00
374553,721.00
374569,775.00
374584,823.00
374600,813.00
374616,810.00
374632,748.00
374648,610.00
374663,654.00
374679,642.00
374695,597.00
374711,864.00
374727,1024.00
374743,459.00
374758,421.00
374774,559.00
374790,556.00
374806,523.00
374822,578.00
374837,617.00
374853,555.00
374869,532.00
374885,607.00
374901,698.00
374917,746.00
374932,787.00
374948,780.00
374964,758.00
374980,618.00
374996,453.00
375011,529.00
375027,662.00
375043,732.00
375059,754.00
375075,788.00
375091,704.00
375106,578.00
375122,439.00
375138,426.00
375154,560.00
375170,620.00
375186,652.00
375201,930.00
375217,990.00
375233,285.00
375249,344.00
375265,432.00
375280,363.00
375296,343.00
375312,331.00
375328,348.00
375344,391.00
375360,426.00
375375,444.00
375391,448.00
375407,513.00
375423,505.00
375439,482.00
375454,382.00
375470,264.00
375486,185.00
375502,178.00
375518,153.00
375534,44.00
375549,14.00
375565,22.00
375581,114.00
375597,91.00
375613,65.00
375628,206.00
375644,369.00
375660,500.00
375676,523.00
375692,834.00
375708,785.00
375723,279.00
375739,624.00
375755,713.00
375771,654.00
375787,580.00
375802,386.00
375818,245.00
375834,212.00
375850,372.00
375866,666.00
375882,990.00
375897,1024.00
375913,1024.00
375929,1024.00
375945,1024.00
375961,991.00
375976,957.00
375992,1024.00
376008,1024.00
376024,1024.00
376040,1023.00
376056,604.00
376071,165.00
376087,16.00
376103,13.00
376119,12.00
376135,13.00
376150,15.00
376166,12.00
376182,12.00
376198,501.00
376214,548.00
376230,617.00
376245,612.00
376261,733.00
376277,723.00
376293,1024.00
376309,1024.00
376325,1024.00
376340,1024.00
376356,1024.00
376372,725.00
376388,488.00
376404,374.00
376419,382.00
376435,458.00
376451,569.00
376467,603.00
376483,522.00
376499,484.00
376514,432.00
376530,463.00
376546,457.00
376562,414.00
376578,401.00
376593,488.00
376609,548.00
376625,577.00
376641,592.00
376657,511.00
376672,656.00
376688,1024.00
376704,670.00
376720,351.00
376736,442.00
376752,545.00
376767,569.00
376783,565.00
376799,451.00
376815,312.00
376831,313.00
376846,408.00
376862,456.00
376878,553.00
376894,897.00
376910,1024.00
376926,1024.00
376941,1024.00
376957,1024.00
376973,1024.00
376989,1024.00
377005,1024.00
377020,1024.00
377036,1024.00
377052,1005.00
377068,32.00
377084,12.00
377100,14.00
377115,10.00
377131,15.00
377147,15.00
377163,12.00
377179,1024.00
377194,1024.00
377210,386.00
377226,412.00
377242,373.00
377258,328.00
377274,324.00
377289,468.00
377305,468.00
377321,879.00
377337,1024.00
377353,896.00
377368,597.00
377384,270.00
377400,305.00
377416,141.00
377432,14.00
377448,10.00
377463,15.00
377479,12.00
377495,440.00
377511,1024.00
377527,853.00
377542,10.00
377558,126.00
377574,1010.00
377590,1024.00
377606,1024.00
377622,680.00
377637,15.00
377653,13.00
377669,198.00
377685,1024.00
377701,1024.00
377716,1024.00
377732,1024.00
377748,774.00
377949,229.00
377960,219.00
377970,267.00
377980,367.00
377990,379.00
378000,390.00
378010,424.00
378020,487.00
378030,487.00
378040,483.00
378216,507.00
378226,594.00
378236,716.00
378246,804.00
378256,898.00
378266,954.00
378276,970.00
378286,956.00
378296,897.00
378306,819.00
378316,794.00
378326,852.00
378336,942.00
378346,1013.00
378551,530.00
378562,496.00
378572,447.00
378582,402.00
378592,352.00
378602,313.00
378612,315.00
378622,302.00
378632,281.00
378642,296.00
378652,393.00
378662,632.00
378672,862.00
378682,530.00
378692,132.00
378702,113.00
378713,204.00
378723,282.00
378733,307.00
378743,325.00
378753,350.00
378763,415.00
378773,456.00
378783,489.00
378793,488.00
378803,486.00
378813,477.00
378823,505.00
378833,548.00
378843,584.00
378853,585.00
378863,578.00
378873,554.00
378883,535.00
378893,520.00
378903,499.00
378913,486.00
378923,452.00
378933,428.00
378943,390.00
378953,345.00
378963,345.00
378973,312.00
378983,316.00
378993,348.00
379003,351.00
379013,363.00
379023,374.00
379033,376.00
379043,422.00
379053,441.00
379063,457.00
379073,436.00
379083,374.00
379093,318.00
379103,256.00
379113,213.00
379124,124.00
379140,12.00
379156,136.00
379172,233.00
379188,14.00
379203,10.00
379219,14.00
379235,382.00
379251,538.00
379267,610.00
379283,594.00
379298,531.00
379314,529.00
379330,606.00
379346,702.00
379362,775.00
379378,809.00
379393,785.00
379409,775.00
379425,752.00
379441,720.00
379457,678.00
379472,645.00
379488,636.00
379504,624.00
379520,658.00
379536,680.00
379551,679.00
379567,682.00
379583,651.00
379599,617.00
379615,634.00
379631,616.00
379646,630.00
379662,855.00
379678,1024.00
379694,385.00
379710,380.00
379725,531.00
379741,561.00
379757,545.00
379773,520.00
379789,517.00
379804,482.00
379820,481.00
379836,490.00
379852,506.00
379868,529.00
379884,616.00
379899,612.00
379915,606.00
379931,604.00
379947,545.00
379963,508.00
379978,487.00
379994,489.00
380010,461.00
380026,485.00
380042,520.00
380058,582.00
380073,622.00
380089,620.00
380105,553.00
380121,505.00
380137,483.00
380152,484.00
380168,713.00
380184,1024.00
380200,475.00
380216,428.00
380232,537.00
380247,594.00
380263,572.00
380279,571.00
380295,560.00
380311,494.00
380326,464.00
380342,458.00
380358,442.00
380374,436.00
380390,423.00
380406,405.00
380421,401.00
380437,427.00
380453,463.00
380469,486.00
380485,530.00
380500,556.00
380516,555.00
380532,566.00
380548,583.00
380564,574.00
380580,572.00
380595,540.00
380611,483.00
380627,475.00
380643,469.00
380659,459.00
380674,589.00
380690,1011.00
380706,438.00
380722,222.00
380738,325.00
380754,436.00
380769,462.00
380785,507.00
380801,497.00
380817,476.00
380833,442.00
380848,449.00
380864,444.00
380880,420.00
380896,399.00
380912,398.00
380928,401.00
380943,449.00
380959,545.00
380975,590.00
380991,609.00
381007,574.00
381022,580.00
381038,462.00
381054,490.00
381070,473.00
381086,774.00
381102,832.00
381117,1024.00
381133,1024.00
381149,1024.00
381165,1024.00
381181,1024.00
381196,1024.00
381212,925.00
381228,12.00
381244,12.00
381260,14.00
381276,13.00
381291,495.00
381307,565.00
381323,12.00
381339,12.00
381355,10.00
381371,14.00
381386,622.00
381402,1024.00
381418,1024.00
381434,760.00
381450,265.00
381465,524.00
381481,565.00
381497,561.00
381513,273.00
381529,281.00
381544,907.00
381560,1024.00
381576,756.00
381592,796.00
381608,314.00
381624,225.00
381639,342.00
381655,309.00
381671,138.00
381687,266.00
381703,1024.00
381718,1017.00
381734,749.00
381750,12.00
381766,15.00
381782,13.00
381798,12.00
381813,12.00
381829,16.00
381845,15.00
381861,12.00
381877,10.00
381892,14.00
381908,944.00
381924,365.00
381940,284.00
381956,117.00
381972,607.00
381987,973.00
382003,646.00
382019,862.00
382035,1024.00
382051,772.00
382066,1024.00
382082,1024.00
382098,46.00
382114,12.00
382129,40.00
382146,361.00
382161,758.00
382177,724.00
382193,1024.00
382209,1024.00
382225,1024.00
382240,1024.00
382256,1024.00
382272,1024.00
382288,1024.00
382304,1024.00
382319,861.00
382335,1003.00
382351,1024.00
382367,886.00
382383,1024.00
382399,1024.00
382414,1024.00
382430,12.00
382446,15.00
382462,926.00
382478,1024.00
382493,1024.00
382509,1024.00
382525,1024.00
382541,1024.00
382557,1024.00
382573,1024.00
382588,1024.00
382604,1024.00
382620,1024.00
382636,699.00
382652,516.00
382668,1024.00
382683,1024.00
382699,1024.00
382715,1024.00
382731,649.00
382747,14.00
382762,15.00
382778,10.00
382794,10.00
382810,14.00
382826,12.00
382842,12.00
382857,12.00
382873,476.00
382889,536.00
382905,529.00
382921,532.00
382936,531.00
382952,533.00
382968,529.00
382984,524.00
383000,744.00
383016,906.00
383031,1024.00
383047,667.00
383063,301.00
383079,40.00
383095,15.00
383110,14.00
383126,12.00
383142,10.00
383158,13.00
383174,13.00
383190,14.00
383205,15.00
383221,13.00
383237,10.00
383253,16.00
383269,925.00
383285,1024.00
383300,1024.00
383316,1024.00
383332,1024.00
383348,1024.00
383364,1024.00
383379,1024.00
383395,1024.00
383411,1024.00
383427,1024.00
383443,1024.00
383459,305.00
383474,84.00
383490,170.00
383506,10.00
383522,12.00
383538,12.00
383553,12.00
383569,13.00
383585,15.00
383601,12.00
383617,1024.00
383633,1024.00
383648,1024.00
383664,1024.00
383680,1024.00
383696,1024.00
383712,1024.00
383727,1024.00
383743,1024.00
383759,869.00
383775,996.00
383791,934.00
383807,824.00
383822,583.00
383838,699.00
383854,880.00
383870,88.00
383886,15.00
383901,14.00
383917,12.00
383933,14.00
383949,1024.00
383965,990.00
383981,729.00
383996,977.00
384012,1024.00
384028,1024.00
384044,1024.00
384060,704.00
384075,14.00
384091,12.00
384107,12.00
384123,14.00
384139,12.00
384155,12.00
384170,10.00
384186,116.00
384202,165.00
384218,15.00
384234,472.00
384249,1024.00
384265,15.00
384281,12.00
384297,802.00
384313,1024.00
384329,1024.00
384344,1024.00
384360,1024.00
384376,1024.00
384392,1024.00
384408,1024.00
384423,1024.00
384439,1024.00
384455,1024.00
384471,792.00
384487,12.00
384503,15.00
384518,15.00
384534,12.00
384550,12.00
384566,12.00
384582,10.00
384597,12.00
384613,15.00
384629,15.00
384645,260.00
384661,302.00
384677,880.00
384692,821.00
384708,112.00
384724,34.00
384740,12.00
384756,13.00
384771,10.00
384787,450.00
384803,957.00
384819,1024.00
384835,1024.00
384851,1024.00
384866,1024.00
384882,717.00
384898,670.00
384914,628.00
384930,646.00
384945,663.00
384961,746.00
384977,770.00
384993,590.00
385009,417.00
385025,570.00
385040,216.00
385056,14.00
385072,14.00
385088,14.00
385104,14.00
385119,210.00
385135,309.00
385151,349.00
385167,393.00
385183,594.00
385199,771.00
385214,814.00
385230,770.00
385246,700.00
385262,609.00
385278,604.00
385293,739.00
385309,596.00
385325,629.00
385341,585.00
385357,522.00
385372,531.00
385388,603.00
385404,601.00
385420,578.00
385436,554.00
385452,552.00
385467,675.00
385483,1024.00
385499,1024.00
385515,444.00
385531,382.00
385547,588.00
385562,665.00
385578,632.00
385594,699.00
385610,790.00
385626,944.00
385641,1024.00
385657,973.00
385673,742.00
385689,565.00
385705,645.00
385721,616.00
385736,657.00
385752,657.00
385768,532.00
385784,382.00
385800,140.00
385815,66.00
385831,54.00
385847,40.00
385863,15.00
385879,12.00
385895,10.00
385910,30.00
385926,990.00
385942,1024.00
385958,1024.00
385974,758.00
385989,13.00
386005,73.00
386021,138.00
386037,16.00
386053,20.00
386069,282.00
386084,416.00
386100,224.00
386116,13.00
386132,15.00
386148,15.00
386163,10.00
386179,382.00
386195,417.00
386211,396.00
386227,317.00
386243,416.00
386258,644.00
386274,802.00
386290,894.00
386306,905.00
386322,847.00
386338,846.00
386353,802.00
386369,714.00
386385,529.00
386401,364.00
386417,549.00
386432,711.00
386448,12.00
386464,12.00
386480,15.00
386496,144.00
386512,200.00
386527,212.00
386543,283.00
386559,339.00
386575,449.00
386591,361.00
386606,180.00
386622,138.00
386638,189.00
386654,348.00
386670,458.00
386685,504.00
386701,639.00
386717,780.00
386733,800.00
386749,855.00
386765,932.00
386780,892.00
386796,955.00
386812,1013.00
386828,1024.00
386844,1024.00
386859,1024.00
386875,1024.00
386891,1024.00
386907,1024.00
386923,381.00
386939,509.00
386954,670.00
386970,641.00
386986,668.00
387002,724.00
387018,761.00
387033,773.00
387049,848.00
387065,902.00
387081,877.00
387097,821.00
387113,775.00
387128,664.00
387144,582.00
387160,520.00
387176,538.00
387192,512.00
387207,591.00
387223,682.00
387239,692.00
387255,682.00
387271,728.00
387287,649.00
387302,708.00
387318,687.00
387334,545.00
387350,680.00
387366,883.00
387381,173.00
387397,96.00
387413,173.00
387429,198.00
387445,249.00
387461,542.00
387476,729.00
387492,870.00
387508,862.00
387524,805.00
387540,772.00
387555,733.00
387571,752.00
387587,648.00
387603,507.00
387619,501.00
387635,532.00
387650,534.00
387666,557.00
387682,496.00
387698,520.00
387714,523.00
387729,573.00
387745,570.00
387761,553.00
387777,303.00
387793,87.00
387808,306.00
387824,915.00
387840,778.00
387856,248.00
387872,168.00
387888,146.00
387903,117.00
387919,152.00
387935,210.00
387951,285.00
387967,463.00
387982,528.00
387998,322.00
388014,80.00
388030,12.00
388046,15.00
388062,10.00
388077,210.00
388093,391.00
388109,432.00
388125,382.00
388141,292.00
388156,238.00
388172,265.00
388188,261.00
388204,258.00
388220,253.00
388236,339.00
388251,476.00
388267,594.00
388283,1024.00
388299,1024.00
388315,1024.00
388330,1024.00
388346,1024.00
388362,628.00
388378,800.00
388394,732.00
388410,757.00
388425,784.00
388441,772.00
388457,753.00
388473,761.00
388489,734.00
388504,705.00
388520,641.00
388536,629.00
388552,605.00
388568,523.00
388584,495.00
388599,499.00
388615,535.00
388631,526.00
388647,554.00
388663,460.00
388678,424.00
388694,426.00
388710,415.00
388726,416.00
388742,484.00
388757,764.00
388773,499.00
388789,15.00
388805,12.00
388821,110.00
388837,121.00
388852,223.00
388868,317.00
388884,338.00
388900,363.00
388916,385.00
388931,330.00
388947,147.00
388963,12.00
388979,15.00
388995,15.00
389011,31.00
389026,580.00
389042,742.00
389058,924.00
389074,977.00
389090,980.00
389106,934.00
389121,893.00
389137,879.00
389153,864.00
389169,893.00
389185,891.00
389200,846.00
389216,1024.00
389232,1024.00
389248,867.00
389264,561.00
389279,688.00
389295,715.00
389311,732.00
389327,770.00
389343,788.00
389359,766.00
389374,737.00
389390,790.00
389406,816.00
389422,762.00
389438,750.00
389453,747.00
389469,774.00
389485,760.00
389501,824.00
389517,999.00
389533,1024.00
389548,1024.00
389564,1024.00
389580,1024.00
389596,879.00
389612,777.00
389628,585.00
389643,468.00
389659,290.00
389675,372.00
389691,939.00
389707,424.00
389722,188.00
389738,361.00
389754,404.00
389770,424.00
389786,450.00
389801,508.00
389817,524.00
389833,519.00
389849,534.00
390141,199.00
390152,545.00
390162,615.00
390172,217.00
390182,15.00
390192,12.00
390202,15.00
390212,10.00
390222,12.00
390232,16.00
390242,88.00
390444,345.00
390455,357.00
390465,361.00
390476,392.00
390486,399.00
390702,657.00
390713,689.00
390723,722.00
390733,764.00
390743,777.00
390753,773.00
390763,765.00
390773,769.00
390783,761.00
390793,762.00
390803,763.00
390813,770.00
390823,787.00
390833,806.00
390845,804.00
390856,786.00
390866,781.00
390877,773.00
390887,773.00
390897,769.00
390907,773.00
390917,763.00
390927,762.00
390937,780.00
390947,789.00
390957,771.00
390967,772.00
390977,762.00
390987,744.00
390997,720.00
391007,690.00
391017,652.00
391027,640.00
391037,632.00
391047,628.00
391057,598.00
391067,658.00
391077,856.00
391087,1024.00
391097,933.00
391107,490.00
391117,428.00
391127,473.00
391137,541.00
391147,641.00
391157,660.00
391167,661.00
391177,684.00
391187,712.00
391197,726.00
391207,734.00
391217,726.00
391227,712.00
391237,701.00
391247,693.00
391257,701.00
391272,686.00
391288,696.00
391304,697.00
391320,667.00
391336,644.00
391352,631.00
391367,638.00
391383,642.00
391399,658.00
391415,679.00
391431,660.00
391446,637.00
391462,607.00
391478,530.00
391494,525.00
391510,510.00
391526,472.00
391541,756.00
391557,955.00
391573,293.00
391589,337.00
391605,483.00
391620,487.00
391636,505.00
391652,546.00
391668,562.00
391684,546.00
391700,538.00
391715,517.00
391731,516.00
391747,524.00
391763,558.00
391779,541.00
391794,521.00
391810,532.00
391826,532.00
391842,537.00
391858,547.00
391874,577.00
391889,577.00
391905,559.00
391921,523.00
391937,459.00
391953,432.00
391968,414.00
391984,319.00
392000,477.00
392016,856.00
392032,146.00
392047,10.00
392063,10.00
392079,12.00
392095,37.00
392111,513.00
392127,706.00
392142,781.00
392158,448.00
392174,301.00
392190,578.00
392206,672.00
392222,544.00
392237,442.00
392253,352.00
392269,292.00
392285,32.00
392301,14.00
392316,10.00
392332,157.00
392348,14.00
392364,12.00
392380,100.00
392396,12.00
392411,317.00
392427,643.00
392443,687.00
392459,1016.00
392475,1024.00
392490,1024.00
392506,619.00
392522,382.00
392538,469.00
392554,605.00
392570,788.00
392585,919.00
392601,977.00
392617,1024.00
392633,1024.00
392649,1024.00
392664,1024.00
392680,1024.00
392696,1024.00
392712,1006.00
392728,792.00
392744,797.00
392759,784.00
392775,697.00
392791,184.00
392807,13.00
392823,10.00
392838,10.00
392854,474.00
392870,483.00
392886,614.00
392902,607.00
392918,603.00
392933,982.00
392949,1024.00
392965,770.00
392981,427.00
392997,555.00
393013,698.00
393028,1024.00
393044,1024.00
393060,1024.00
393076,1024.00
393092,831.00
393107,740.00
393123,723.00
393139,728.00
393155,12.00
393171,13.00
393186,14.00
393202,14.00
393218,12.00
393234,16.00
393250,10.00
393266,12.00
393281,14.00
393297,223.00
393313,510.00
393329,1024.00
393345,1024.00
393360,1024.00
393376,1024.00
393392,901.00
393408,812.00
393424,337.00
393440,310.00
393455,336.00
393471,478.00
393487,754.00
393503,15.00
393519,10.00
393534,14.00
393550,1024.00
393566,1024.00
393582,1024.00
393598,1024.00
393614,1024.00
393629,878.00
393645,813.00
393661,1024.00
393677,1024.00
393693,1024.00
393708,1024.00
393724,814.00
393740,393.00
393756,12.00
393772,13.00
393788,14.00
393803,12.00
393819,14.00
393835,14.00
393851,10.00
393867,120.00
393882,973.00
393898,1024.00
393914,1024.00
393930,1024.00
393946,1024.00
393962,1024.00
393977,1024.00
393993,1024.00
394009,1024.00
394025,1024.00
394041,700.00
394057,739.00
394072,694.00
394088,632.00
394104,426.00
394120,153.00
394136,13.00
394151,14.00
394167,12.00
394183,737.00
394199,1024.00
394215,1024.00
394231,917.00
394246,309.00
394262,260.00
394278,588.00
394294,724.00
394310,1024.00
394325,1024.00
394341,1024.00
394357,1024.00
394373,777.00
394389,557.00
394405,554.00
394420,576.00
394436,581.00
394452,457.00
394468,450.00
394484,529.00
394499,578.00
394515,523.00
394531,488.00
394547,553.00
394563,656.00
394579,816.00
394594,876.00
394610,912.00
394626,914.00
394642,945.00
394658,988.00
394673,841.00
394689,736.00
394705,750.00
394721,857.00
394737,920.00
394753,758.00
394768,493.00
394784,405.00
394800,15.00
394816,14.00
394832,15.00
394848,10.00
394863,12.00
394879,15.00
394895,562.00
394911,530.00
394927,529.00
394942,537.00
394958,531.00
394974,530.00
394990,531.00
395006,352.00
395022,14.00
395037,172.00
395053,645.00
395069,795.00
395085,426.00
395101,14.00
395116,12.00
395132,13.00
395148,15.00
395164,80.00
395180,164.00
395196,12.00
395211,12.00
395227,12.00
395243,15.00
395259,15.00
395275,13.00
395290,14.00
395306,15.00
395322,1024.00
395338,1024.00
395354,1024.00
395370,1024.00
395385,1024.00
395401,1024.00
395417,1024.00
395433,1024.00
395449,15.00
395464,12.00
395480,15.00
395496,435.00
395512,70.00
395528,393.00
395544,1024.00
395559,1024.00
395575,1024.00
395591,897.00
395607,984.00
395623,642.00
395638,264.00
395654,16.00
395670,14.00
395686,13.00
395702,12.00
395718,610.00
395733,228.00
395749,377.00
395765,679.00
395781,808.00
395797,832.00
395812,772.00
395828,582.00
395844,473.00
395860,465.00
395876,481.00
395892,512.00
395907,583.00
395923,670.00
395939,640.00
395955,555.00
395971,494.00
395986,498.00
396002,569.00
396018,690.00
396034,761.00
396050,759.00
396066,739.00
396081,732.00
396097,700.00
396113,693.00
396129,642.00
396145,631.00
396160,888.00
396176,1024.00
396192,843.00
396208,597.00
396224,750.00
396239,775.00
396255,780.00
396271,757.00
396287,749.00
396303,720.00
396319,686.00
396334,681.00
396350,720.00
396366,712.00
396382,685.00
396398,642.00
396413,605.00
396429,601.00
396445,605.00
396461,609.00
396477,658.00
396493,700.00
396508,738.00
396524,738.00
396540,734.00
396556,660.00
396572,593.00
396587,562.00
396603,501.00
396619,537.00
396635,954.00
396651,777.00
396667,148.00
396682,270.00
396698,390.00
396714,447.00
396730,540.00
396746,704.00
396761,747.00
396777,866.00
396793,901.00
396809,906.00
396825,641.00
396841,305.00
396856,243.00
396872,367.00
396888,521.00
396904,541.00
396920,550.00
396936,766.00
396951,805.00
396967,853.00
396983,858.00
396999,746.00
397015,558.00
397030,420.00
397046,310.00
397062,361.00
397078,357.00
397094,410.00
397110,799.00
397125,806.00
397141,175.00
397157,234.00
397173,333.00
397189,344.00
397204,342.00
397220,330.00
397236,313.00
397252,272.00
397268,226.00
397283,225.00
397299,230.00
397315,219.00
397331,196.00
397347,125.00
397363,78.00
397378,106.00
397394,132.00
397410,245.00
397426,317.00
397442,338.00
397457,328.00
397473,190.00
397489,10.00
397505,13.00
397521,10.00
397537,14.00
397552,14.00
397568,15.00
397584,154.00
397600,638.00
397616,216.00
397631,15.00
397647,15.00
397663,32.00
397679,286.00
397695,438.00
397711,631.00
397726,762.00
397742,907.00
397758,957.00
397774,926.00
397790,884.00
397805,865.00
397821,796.00
397837,761.00
397853,771.00
397869,789.00
397885,841.00
397900,858.00
397916,902.00
397932,904.00
397948,943.00
397964,972.00
397979,994.00
397995,1013.00
398011,996.00
398027,972.00
398043,951.00
398059,880.00
398074,925.00
398090,1024.00
398106,1024.00
398122,664.00
398138,714.00
398153,855.00
398169,882.00
398185,895.00
398201,900.00
398217,855.00
398233,826.00
398248,820.00
398264,712.00
398280,686.00
398296,823.00
398312,874.00
398327,817.00
398343,828.00
398359,906.00
398375,965.00
398391,855.00
398407,867.00
398422,792.00
398438,665.00
398454,437.00
398470,192.00
398486,12.00
398501,12.00
398517,13.00
398533,273.00
398549,545.00
398565,430.00
398581,788.00
398596,242.00
398612,470.00
398628,934.00
398644,772.00
398660,306.00
398675,13.00
398691,14.00
398707,12.00
398723,13.00
398739,12.00
398755,10.00
398770,10.00
398786,15.00
398802,14.00
398818,963.00
398834,968.00
398849,384.00
398865,14.00
398881,242.00
398897,1024.00
398913,1024.00
398929,1024.00
398944,1024.00
398960,1024.00
398976,1024.00
398992,1024.00
399008,1024.00
399024,292.00
399039,79.00
399055,456.00
399071,449.00
399087,12.00
399103,12.00
399118,10.00
399134,13.00
399150,14.00
399166,12.00
399182,15.00
399198,12.00
399213,13.00
399229,15.00
399245,14.00
399261,547.00
399277,532.00
399292,532.00
399308,525.00
399324,532.00
399340,532.00
399356,533.00
399372,703.00
399387,1024.00
399403,1024.00
399419,1024.00
399435,1024.00
399451,1024.00
399466,1024.00
399482,1024.00
399498,1024.00
399514,1024.00
399530,1024.00
399545,1024.00
399561,1024.00
399577,1024.00
399593,12.00
399609,15.00
399625,10.00
399640,14.00
399656,562.00
399672,525.00
399688,536.00
399704,536.00
399719,531.00
399735,532.00
399751,530.00
399767,544.00
399783,1024.00
399799,1024.00
399814,1024.00
399830,1024.00
399846,1024.00
399862,1024.00
399878,1024.00
399893,1024.00
399909,1024.00
399925,1024.00
399941,1024.00
399957,1024.00
399973,1024.00
399988,1024.00
400004,674.00
400020,523.00
400036,532.00
400052,526.00
400067,525.00
400083,529.00
400099,529.00
400115,472.00
400131,13.00
400147,10.00
400162,16.00
400178,762.00
400194,1024.00
400210,13.00
400226,1024.00
400241,1024.00
400257,1024.00
400273,1024.00
400289,1024.00
400305,1024.00
400321,1024.00
400336,1024.00
400352,1024.00
400368,1024.00
400384,1024.00
400400,1024.00
400415,1024.00
400431,588.00
400447,500.00
400463,486.00
400479,15.00
400495,14.00
400510,14.00
400526,12.00
400542,12.00
400558,12.00
400574,15.00
400589,14.00
400605,357.00
400621,858.00
400637,1024.00
400653,1024.00
400669,1024.00
400684,1024.00
400700,1024.00
400716,1024.00
400732,1024.00
400748,1024.00
400763,180.00
400779,12.00
400795,12.00
400811,15.00
400827,121.00
400843,556.00
400858,517.00
400874,532.00
400890,544.00
400906,531.00
