1470060,436.00
1470070,471.00
1470080,531.00
1470090,621.00
1470100,655.00
1470110,687.00
1470120,757.00
1470130,689.00
1470140,657.00
1470150,891.00
1470160,1024.00
1470170,533.00
1470180,259.00
1470190,361.00
1470200,408.00
1470210,377.00
1470220,415.00
1470230,469.00
1470240,424.00
1470250,350.00
1470260,305.00
1470270,313.00
1470280,402.00
1470290,462.00
1470300,498.00
1470310,525.00
1470320,583.00
1470330,649.00
1470340,657.00
1470350,657.00
1470360,636.00
1470370,634.00
1470380,645.00
1470390,660.00
1470400,644.00
1470410,547.00
1470420,567.00
1470430,571.00
1470440,531.00
1470450,499.00
1470460,494.00
1470470,440.00
1470480,489.00
1470490,674.00
1470500,1024.00
1470510,789.00
1470520,478.00
1470530,422.00
1470540,382.00
1470550,366.00
1470560,414.00
1470570,346.00
1470580,302.00
1470590,248.00
1470600,226.00
1470610,360.00
1470622,498.00
1470639,641.00
1470654,679.00
1470671,621.00
1470685,641.00
1470702,578.00
1470717,593.00
1470734,641.00
1470748,629.00
1470764,571.00
1470781,533.00
1470797,526.00
1470812,414.00
1470828,502.00
1470843,937.00
1470860,423.00
1470875,499.00
1470892,560.00
1470906,523.00
1470923,505.00
1470938,560.00
1470955,510.00
1470971,545.00
1470985,588.00
1471002,544.00
1471017,565.00
1471034,601.00
1471050,712.00
1471064,724.00
1471081,645.00
1471097,394.00
1471112,308.00
1471129,353.00
1471144,459.00
1471159,604.00
1471176,915.00
1471191,820.00
1471208,424.00
1471223,490.00
1471238,483.00
1471255,401.00
1471270,421.00
1471287,436.00
1471302,417.00
1471317,451.00
1471334,518.00
1471349,572.00
1471366,663.00
1471380,653.00
1471397,872.00
1471412,730.00
1471429,614.00
1471444,532.00
1471460,585.00
1471476,600.00
1471491,521.00
1471508,454.00
1471523,626.00
1471539,442.00
1471554,189.00
1471571,333.00
1471586,514.00
1471603,544.00
1471617,531.00
1471634,470.00
1471650,457.00
1471665,511.00
1471682,452.00
1471696,524.00
1471713,617.00
1471729,628.00
1471744,705.00
1471759,690.00
1471776,553.00
1471791,617.00
1471808,523.00
1471823,474.00
1471839,460.00
1471854,428.00
1471871,890.00
1471887,324.00
1471902,309.00
1471918,388.00
1471933,361.00
1471950,404.00
1471965,366.00
1471982,458.00
1471996,435.00
1472013,521.00
1472028,633.00
1472045,677.00
1472060,682.00
1472076,679.00
1472092,607.00
1472107,517.00
1472124,378.00
1472139,294.00
1472155,313.00
1472170,295.00
1472187,207.00
1472202,521.00
1472219,1024.00
1472233,509.00
1472250,639.00
1472265,774.00
1472282,645.00
1472297,654.00
1472313,582.00
1472328,620.00
1472345,638.00
1472361,627.00
1472377,617.00
1472391,616.00
1472408,685.00
1472423,710.00
1472440,681.00
1472456,600.00
1472470,352.00
1472487,313.00
1472503,324.00
1472519,336.00
1472534,390.00
1472550,913.00
1472566,988.00
1472581,590.00
1472598,478.00
1472613,403.00
1472629,399.00
1472644,468.00
1472661,436.00
1472677,484.00
1472692,523.00
1472708,595.00
1472723,627.00
1472740,668.00
1472756,703.00
1472771,701.00
1472787,678.00
1472802,618.00
1472819,501.00
1472834,409.00
1472851,404.00
1472865,451.00
1472882,548.00
1472898,877.00
1472913,370.00
1472930,368.00
1472944,387.00
1472961,400.00
1472976,413.00
1472993,330.00
1473008,363.00
1473024,552.00
1473039,531.00
1473056,580.00
1473072,643.00
1473088,624.00
1473102,570.00
1473119,566.00
1473135,523.00
1473151,459.00
1473167,354.00
1473182,416.00
1473197,400.00
1473214,272.00
1473229,504.00
1473246,847.00
1473260,428.00
1473277,447.00
1473292,447.00
1473309,512.00
1473325,529.00
1473339,556.00
1473356,634.00
1473372,692.00
1473388,615.00
1473404,627.00
1473419,569.00
1473435,486.00
1473450,514.00
1473467,481.00
1473482,445.00
1473498,463.00
1473513,398.00
1473530,469.00
1473546,402.00
1473561,220.00
1473577,438.00
1473592,721.00
1473609,185.00
1473624,264.00
1473641,451.00
1473655,483.00
1473672,550.00
1473687,473.00
1473704,535.00
1473719,653.00
1473735,652.00
1473750,610.00
1473767,595.00
1473782,559.00
1473799,572.00
1473813,592.00
1473830,574.00
1473845,492.00
1473862,500.00
1473877,562.00
1473893,456.00
1473908,456.00
1473925,888.00
1473941,769.00
1473957,490.00
1473971,592.00
1473988,689.00
1474003,595.00
1474020,552.00
1474035,418.00
1474051,360.00
1474067,365.00
1474083,511.00
1474098,560.00
1474115,584.00
1474130,529.00
1474146,630.00
1474161,668.00
1474178,642.00
1474193,497.00
1474209,445.00
1474224,512.00
1474241,526.00
1474256,634.00
1474273,989.00
1474287,605.00
1474304,458.00
1474319,533.00
1474336,612.00
1474350,531.00
1474367,521.00
1474383,528.00
1474399,408.00
1474414,369.00
1474429,313.00
1474446,499.00
1474462,658.00
1474477,628.00
1474494,640.00
1474510,530.00
1474524,438.00
1474541,400.00
1474556,388.00
1474573,319.00
1474589,262.00
1474603,560.00
1474620,918.00
1474635,396.00
1474652,482.00
1474666,457.00
1474683,463.00
1474698,468.00
1474715,490.00
1474730,547.00
1474746,562.00
1474761,586.00
1474778,543.00
1474793,610.00
1474810,600.00
1474824,642.00
1474841,570.00
1474856,394.00
1474873,355.00
1474888,345.00
1474904,391.00
1474919,480.00
1474936,481.00
1474952,762.00
1474967,793.00
1474983,451.00
1474999,504.00
1475014,512.00
1475031,511.00
1475047,519.00
1475062,456.00
1475078,462.00
1475094,463.00
1475110,554.00
1475125,566.00
1475142,644.00
1475156,725.00
1475173,805.00
1475188,860.00
1475205,718.00
1475219,609.00
1475236,553.00
1475252,580.00
1475268,674.00
1475283,737.00
1475299,1020.00
1475315,852.00
1475331,524.00
1475346,500.00
1475363,454.00
1475379,423.00
1475394,289.00
1475409,474.00
1475426,582.00
1475441,616.00
1475458,557.00
1475472,569.00
1475489,616.00
1475505,645.00
1475520,694.00
1475537,639.00
1475551,585.00
1475568,460.00
1475583,537.00
1475600,520.00
1475616,356.00
1475631,448.00
1475646,944.00
1475663,487.00
1475678,339.00
1475695,381.00
1475709,418.00
1475726,399.00
1475742,433.00
1475758,448.00
1475773,449.00
1475789,526.00
1475805,536.00
1475820,453.00
1475837,490.00
1475852,608.00
1475868,728.00
1475884,776.00
1475899,663.00
1475916,548.00
1475932,408.00
1475947,324.00
1475962,142.00
1475979,377.00
1475994,794.00
1476011,245.00
1476025,288.00
1476042,332.00
1476058,388.00
1476073,492.00
1476090,557.00
1476104,594.00
1476121,688.00
1476137,685.00
1476153,713.00
1476168,733.00
1476184,744.00
1476200,757.00
1476215,639.00
1476232,464.00
1476248,534.00
1476263,433.00
1476278,446.00
1476295,461.00
1476310,401.00
1476327,781.00
1476341,1024.00
1476358,573.00
1476373,538.00
1476390,438.00
1476405,552.00
1476421,552.00
1476436,557.00
1476453,597.00
1476468,602.00
1476485,593.00
1476500,607.00
1476516,512.00
1476531,508.00
1476548,595.00
1476564,694.00
1476579,617.00
1476594,615.00
1476611,531.00
1476627,389.00
1476642,377.00
1476658,463.00
1476674,909.00
1476689,764.00
1476706,322.00
1476721,313.00
1476737,385.00
1476752,418.00
1476769,463.00
1476785,452.00
1476800,499.00
1476816,548.00
1476832,590.00
1476848,618.00
1476863,593.00
1476880,507.00
1476894,585.00
1476911,572.00
1476926,406.00
1476943,319.00
1476959,314.00
1476973,389.00
1476990,388.00
1477005,449.00
1477022,878.00
1477037,634.00
1477053,519.00
1477068,581.00
1477085,531.00
1477100,524.00
1477117,495.00
1477131,490.00
1477148,550.00
1477163,634.00
1477180,553.00
1477196,507.00
1477211,512.00
1477226,568.00
1477243,656.00
1477258,729.00
1477275,668.00
1477290,688.00
1477305,510.00
1477322,477.00
1477337,418.00
1477354,470.00
1477368,835.00
1477385,444.00
1477400,351.00
1477417,508.00
1477433,471.00
1477447,458.00
1477464,537.00
1477479,546.00
1477496,465.00
1477511,487.00
1477527,574.00
1477542,568.00
1477559,576.00
1477574,586.00
1477591,592.00
1477605,618.00
1477622,577.00
1477637,600.00
1477654,585.00
1477669,550.00
1477685,313.00
1477700,261.00
1477717,1014.00
1477732,602.00
1477749,502.00
1477764,606.00
1477779,553.00
1477795,484.00
1477811,433.00
1477826,421.00
1477843,372.00
1477858,346.00
1477875,397.00
1477890,565.00
1477906,559.00
1477922,578.00
1477937,555.00
1477953,562.00
1477970,531.00
1477984,531.00
1478001,543.00
1478016,552.00
1478033,548.00
1478048,642.00
1478064,961.00
1478080,380.00
1478095,360.00
1478112,450.00
1478128,329.00
1478142,266.00
1478159,194.00
1478174,236.00
1478190,454.00
1478207,558.00
1478221,630.00
1478238,616.00
1478253,669.00
1478270,734.00
1478285,686.00
1478301,589.00
1478316,507.00
1478333,464.00
1478348,386.00
1478363,484.00
1478380,421.00
1478395,677.00
1478412,867.00
1478427,398.00
1478443,471.00
1478458,543.00
1478475,487.00
1478490,537.00
1478507,552.00
1478521,629.00
1478538,696.00
1478553,735.00
1478570,649.00
1478585,541.00
1478601,510.00
1478616,579.00
1478633,634.00
1478648,696.00
1481143,12.00
1508349,569.00
1508359,549.00
1508369,526.00
1508379,516.00
1508389,504.00
1508399,506.00
1508409,512.00
1508419,538.00
1508429,538.00
1508439,537.00
1508748,531.00
1508759,526.00
1508769,550.00
1508779,540.00
1508789,580.00
1508799,594.00
1508809,576.00
1509064,538.00
1509075,547.00
1509085,561.00
1509095,565.00
1509105,559.00
1509115,570.00
1509125,526.00
1509135,549.00
1509145,565.00
1509156,600.00
1509167,614.00
1509177,601.00
1509187,598.00
1509197,549.00
1509207,504.00
1509217,480.00
1509227,471.00
1509237,478.00
1509247,476.00
1509257,477.00
1509267,437.00
1509277,388.00
1509287,516.00
1509297,826.00
1509307,993.00
1509317,484.00
1509327,348.00
1509337,423.00
1509347,448.00
1509357,459.00
1509367,475.00
1509377,483.00
1509387,488.00
1509397,498.00
1509407,512.00
1509417,526.00
1509427,545.00
1509437,561.00
1509447,578.00
1509457,578.00
1509467,569.00
1509477,572.00
1509487,569.00
1509497,572.00
1509507,581.00
1509517,586.00
1509527,613.00
1509537,624.00
1509547,615.00
1509557,604.00
1509567,559.00
1509577,507.00
1509587,484.00
1509597,493.00
1509607,497.00
1509617,495.00
1509627,490.00
1509641,423.00
1509656,510.00
1509673,991.00
1509688,458.00
1509704,430.00
1509720,468.00
1509735,490.00
1509752,502.00
1509768,522.00
1509783,553.00
1509798,574.00
1509815,596.00
1509831,593.00
1509847,586.00
1509863,574.00
1509877,590.00
1509894,612.00
1509910,640.00
1509926,620.00
1509942,545.00
1509956,493.00
1509973,488.00
1509988,490.00
1510005,471.00
1510021,417.00
1510035,702.00
1510052,833.00
1510068,380.00
1510083,459.00
1510100,474.00
1510115,492.00
1510131,508.00
1510147,526.00
1510162,548.00
1510179,573.00
1510194,590.00
1510210,596.00
1510225,588.00
1510242,572.00
1510258,586.00
1510272,601.00
1510289,612.00
1510305,593.00
1510321,520.00
1510337,480.00
1510353,474.00
1510367,488.00
1510383,445.00
1510400,446.00
1510415,843.00
1510431,616.00
1510447,403.00
1510462,452.00
1510479,461.00
1510495,477.00
1510509,488.00
1510526,508.00
1510542,540.00
1510558,569.00
1510574,576.00
1510589,588.00
1510605,567.00
1510621,560.00
1510637,572.00
1510652,589.00
1510669,604.00
1510684,576.00
1510699,471.00
1510716,446.00
1510731,452.00
1510748,469.00
1510763,422.00
1510779,465.00
1510795,895.00
1510810,562.00
1510827,410.00
1510842,450.00
1510858,463.00
1510874,478.00
1510889,511.00
1510906,530.00
1510921,535.00
1510937,556.00
1510953,572.00
1510968,583.00
1510985,556.00
1510999,542.00
1511016,542.00
1511032,565.00
1511047,577.00
1511064,553.00
1511078,487.00
1511095,442.00
1511111,430.00
1511127,435.00
1511143,372.00
1511159,390.00
1511173,778.00
1511190,533.00
1511206,338.00
1511222,401.00
1511238,432.00
1511252,418.00
1511269,447.00
1511285,476.00
1511300,494.00
1511317,514.00
1511332,521.00
1511347,532.00
1511364,531.00
1511380,512.00
1511396,543.00
1511410,556.00
1511427,584.00
1511442,581.00
1511459,507.00
1511474,448.00
1511490,457.00
1511505,452.00
1511522,410.00
1511538,399.00
1511554,794.00
1511569,740.00
1511585,320.00
1511601,427.00
1511617,460.00
1511632,469.00
1511648,506.00
1511664,509.00
1511680,545.00
1511696,562.00
1511712,592.00
1511728,597.00
1511742,600.00
1511759,569.00
1511775,592.00
1511790,607.00
1511807,627.00
1511821,616.00
1511838,541.00
1511854,494.00
1511870,502.00
1511885,509.00
1511901,493.00
1511917,446.00
1511932,763.00
1511949,824.00
1511964,389.00
1511980,476.00
1511995,494.00
1512012,518.00
1512028,517.00
1512044,542.00
1512058,557.00
1512075,590.00
1512091,604.00
1512107,604.00
1512123,600.00
1512137,578.00
1512154,604.00
1512169,619.00
1512186,652.00
1512202,636.00
1512216,578.00
1512233,511.00
1512249,502.00
1512264,501.00
1512281,481.00
1512296,436.00
1512312,747.00
1512328,800.00
1512344,392.00
1512360,470.00
1512375,472.00
1512391,486.00
1512407,499.00
1512423,516.00
1512438,547.00
1512454,576.00
1512470,591.00
1512485,597.00
1512502,590.00
1512518,562.00
1512534,574.00
1512548,586.00
1512565,609.00
1512581,593.00
1512596,532.00
1512613,469.00
1512628,461.00
1512644,473.00
1512660,465.00
1512675,376.00
1512692,609.00
1512707,901.00
1512723,342.00
1512739,392.00
1512755,412.00
1512770,417.00
1512786,435.00
1512801,454.00
1512818,493.00
1512833,497.00
1512850,523.00
1512865,526.00
1512881,525.00
1512897,488.00
1512913,485.00
1512929,498.00
1512945,537.00
1512960,542.00
1512976,512.00
1512991,441.00
1513008,412.00
1513023,406.00
1513039,406.00
1513055,338.00
1513070,398.00
1513087,880.00
1513103,418.00
1513117,331.00
1513134,392.00
1513149,441.00
1513166,428.00
1513181,469.00
1513197,487.00
1513213,511.00
1513229,522.00
1513244,542.00
1513261,555.00
1513276,540.00
1513292,544.00
1513307,578.00
1513324,616.00
1513339,633.00
1513355,636.00
1513370,564.00
1513387,506.00
1513402,493.00
1513419,492.00
1513434,468.00
1513450,427.00
1513465,780.00
1513482,772.00
1513498,381.00
1513512,475.00
1513529,488.00
1513545,497.00
1513561,519.00
1513577,536.00
1513591,557.00
1513608,578.00
1513623,598.00
1513640,592.00
1513655,582.00
1513671,561.00
1513687,595.00
1513702,612.00
1513719,633.00
1513735,614.00
1513749,537.00
1513766,478.00
1513782,483.00
1513798,483.00
1513813,465.00
1513829,379.00
1513845,728.00
1513861,856.00
1513876,351.00
1513893,453.00
1513907,460.00
1513924,474.00
1513940,494.00
1513956,514.00
1513972,540.00
1513988,582.00
1514003,603.00
1514019,602.00
1514034,602.00
1514051,583.00
1514066,604.00
1514082,615.00
1514098,639.00
1514114,621.00
1514130,561.00
1514145,492.00
1514161,477.00
1514176,484.00
1514193,485.00
1514208,412.00
1514225,566.00
1514240,949.00
1514256,417.00
1514271,434.00
1514288,466.00
1514304,487.00
1514319,509.00
1514334,516.00
1514351,530.00
1514366,556.00
1514383,592.00
1514397,602.00
1514414,602.00
1514429,561.00
1514446,557.00
1514461,562.00
1514477,580.00
1514493,610.00
1514509,590.00
1514524,505.00
1514541,465.00
1514555,471.00
1514572,477.00
1514588,434.00
1514604,429.00
1514620,822.00
1514634,674.00
1514651,392.00
1514666,460.00
1514683,465.00
1514698,478.00
1514714,505.00
1514729,516.00
1514746,536.00
1514762,566.00
1514778,598.00
1514792,604.00
1514809,578.00
1514825,543.00
1514841,538.00
1514857,550.00
1514873,584.00
1514888,586.00
1514903,541.00
1514920,483.00
1514936,459.00
1514952,448.00
1514966,446.00
1514983,362.00
1514998,494.00
1515015,883.00
1515031,339.00
1515045,376.00
1515062,434.00
1515078,421.00
1515094,442.00
1515109,472.00
1515125,493.00
1515141,518.00
1515157,545.00
1515172,557.00
1515189,560.00
1515203,526.00
1515220,517.00
1515235,525.00
1515252,553.00
1515268,580.00
1515283,567.00
1515299,475.00
1515315,442.00
1515331,447.00
1515347,437.00
1515363,421.00
1515378,361.00
1515394,701.00
1515410,821.00
1515426,310.00
1515442,388.00
1515457,434.00
1515473,435.00
1515489,453.00
1515505,494.00
1515520,522.00
1515537,578.00
1515552,600.00
1515567,617.00
1515584,616.00
1515600,585.00
1515616,601.00
1515630,602.00
1515647,638.00
1515663,646.00
1515679,595.00
1515695,518.00
1515710,492.00
1515725,499.00
1515742,481.00
1515757,401.00
1515774,487.00
1515789,963.00
1515804,528.00
1515821,413.00
1515836,462.00
1515853,480.00
1515868,498.00
1515884,511.00
1515900,528.00
1515915,548.00
1515932,578.00
1515947,596.00
1515963,596.00
1515978,589.00
1515995,580.00
1516010,596.00
1516026,608.00
1516041,619.00
1516058,605.00
1516074,502.00
1516089,445.00
1516105,449.00
1516121,451.00
1516137,416.00
1516153,356.00
1516168,747.00
1516184,831.00
1516200,381.00
1516215,468.00
1516232,489.00
1516248,495.00
1516264,533.00
1516279,543.00
1516295,590.00
1516311,597.00
1516327,556.00
1516342,583.00
1516357,612.00
1516374,614.00
1516390,605.00
1516405,573.00
1516422,585.00
1516437,665.00
1516452,628.00
1516469,561.00
1516485,528.00
1516501,427.00
1516516,445.00
1516532,363.00
1516548,450.00
1516564,912.00
1516580,428.00
1516596,393.00
1516610,460.00
1516627,492.00
1516642,508.00
1516659,534.00
1516675,565.00
1516689,557.00
1516706,613.00
1516721,606.00
1516737,603.00
1516753,596.00
1516769,542.00
1516784,536.00
1516801,517.00
1516816,529.00
1516832,532.00
1516848,470.00
1516864,417.00
1516880,397.00
1516896,394.00
1516912,380.00
1516927,301.00
1516943,504.00
1516958,811.00
1516975,295.00
1516991,305.00
1517006,375.00
1517022,396.00
1517037,410.00
1517054,485.00
1517069,528.00
1517085,559.00
1517101,632.00
1517116,638.00
1517133,607.00
1517149,549.00
1517164,534.00
1517180,535.00
1517195,537.00
1517212,565.00
1517227,574.00
1517243,510.00
1517259,446.00
1517275,441.00
1517291,447.00
1517306,366.00
1517323,364.00
1517338,726.00
1517353,627.00
1517370,288.00
1517385,331.00
1517402,341.00
1519584,464.00
1519595,462.00
1519605,457.00
1519615,375.00
1519637,669.00
1519647,952.00
1519657,651.00
1519667,302.00
1519677,339.00
1519687,440.00
1519697,507.00
1519707,545.00
1519717,556.00
1519727,553.00
1519737,516.00
1519747,524.00
1519757,558.00
1519767,586.00
1519777,568.00
1519787,591.00
1519797,595.00
1519807,586.00
1519817,565.00
1519827,576.00
1519837,590.00
1519851,581.00
1519866,570.00
1519883,576.00
1519898,561.00
1519915,540.00
1519929,435.00
1519946,390.00
1519962,388.00
1519978,425.00
1519994,410.00
1520009,449.00
1520025,898.00
1520041,600.00
1520056,262.00
1520073,399.00
1520087,444.00
1520104,377.00
1520120,355.00
1520136,398.00
1520152,439.00
1520167,480.00
1520183,507.00
1520198,521.00
1520215,537.00
1520231,517.00
1520247,509.00
1520261,525.00
1520278,534.00
1520293,535.00
1520310,468.00
1520326,451.00
1520340,444.00
1520357,457.00
1520372,440.00
1520389,388.00
1520404,717.00
1520420,919.00
1520436,353.00
1520452,474.00
1520468,520.00
1520483,530.00
1520499,512.00
1520515,537.00
1520531,557.00
1520547,591.00
1520563,584.00
1520577,595.00
1520594,601.00
1520610,574.00
1520625,607.00
1520642,645.00
1520657,656.00
1520673,654.00
1520689,576.00
1520705,526.00
1520720,519.00
1520737,525.00
1520751,532.00
1520768,451.00
1520784,712.00
1520800,1024.00
1520816,394.00
1520831,442.00
1520847,526.00
1520863,521.00
1520879,416.00
1520895,449.00
1520909,475.00
1520926,480.00
1520942,513.00
1520958,531.00
1520974,624.00
1520990,624.00
1521005,660.00
1521021,652.00
1521036,638.00
1521053,612.00
1521069,572.00
1521083,505.00
1521100,465.00
1521116,490.00
1521132,510.00
1521148,432.00
1521163,684.00
1521179,1024.00
1521195,447.00
1521210,472.00
1521227,494.00
1521242,513.00
1521258,538.00
1521274,578.00
1521289,519.00
1521306,524.00
1521322,546.00
1521336,512.00
1521353,566.00
1521369,580.00
1521384,555.00
1521401,562.00
1521415,606.00
1521432,576.00
1521447,552.00
1521464,475.00
1521480,488.00
1521495,421.00
1521511,483.00
1521526,405.00
1521543,534.00
1521558,1014.00
1521574,519.00
1521590,452.00
1521606,476.00
1521621,499.00
1521638,500.00
1521653,476.00
1521669,524.00
1521685,518.00
1521701,564.00
1521717,557.00
1521732,535.00
1521748,495.00
1521764,502.00
1521779,520.00
1521796,552.00
1521811,550.00
1521827,540.00
1521843,441.00
1521859,406.00
1521875,452.00
1521891,446.00
1521906,414.00
1521922,451.00
1521938,849.00
1521954,705.00
1521970,434.00
1521984,480.00
1522001,439.00
1522017,470.00
1522033,500.00
1522049,558.00
1522065,619.00
1522080,615.00
1522096,631.00
1522111,610.00
1522128,580.00
1522144,550.00
1522159,547.00
1522174,548.00
1522191,547.00
1522207,544.00
1522223,496.00
1522238,466.00
1522254,438.00
1522270,471.00
1522285,497.00
1522302,426.00
1522317,634.00
1522333,937.00
1522349,228.00
1522365,280.00
1522380,286.00
1522397,327.00
1522412,389.00
1522428,415.00
1522444,475.00
1522460,545.00
1522476,568.00
1522491,522.00
1522506,513.00
1522523,478.00
1522538,453.00
1522555,459.00
1522569,564.00
1522586,617.00
1522602,580.00
1522618,547.00
1522634,532.00
1522649,564.00
1522665,555.00
1522681,497.00
1522696,528.00
1522713,999.00
1522729,559.00
1522744,329.00
1522759,448.00
1522776,481.00
1522791,448.00
1522808,430.00
1522823,468.00
1522839,534.00
1522855,569.00
1522871,595.00
1522887,565.00
1522902,581.00
1522917,553.00
1522934,546.00
1522949,438.00
1522966,519.00
1522981,616.00
1522997,533.00
1523013,420.00
1523029,394.00
1523045,461.00
1523059,483.00
1523076,441.00
1523092,734.00
1523108,812.00
1523124,325.00
1523140,447.00
1523155,505.00
1523171,490.00
1523186,487.00
1523203,501.00
1523219,528.00
1523234,609.00
1523250,654.00
1523266,653.00
1523282,624.00
1523297,580.00
1523313,585.00
1523329,628.00
1523345,511.00
1523361,472.00
1523377,475.00
1523393,405.00
1523407,402.00
1523424,425.00
1523440,340.00
1523456,261.00
1523472,429.00
1523487,913.00
1523502,696.00
1523519,452.00
1523535,543.00
1523550,549.00
1523566,597.00
1523582,605.00
1523598,531.00
1523614,570.00
1523630,589.00
1523646,641.00
1523660,656.00
1523677,641.00
1523693,602.00
1523709,596.00
1523725,638.00
1523740,641.00
1523756,677.00
1523771,590.00
1523788,483.00
1523804,458.00
1523819,486.00
1523835,442.00
1523851,361.00
1523866,522.00
1523883,954.00
1523897,360.00
1523914,267.00
1523930,373.00
1523946,480.00
1523962,538.00
1523977,579.00
1523993,538.00
1524009,464.00
1524025,272.00
1524041,546.00
1524057,523.00
1524071,533.00
1524088,559.00
1524104,565.00
1524119,627.00
1524136,619.00
1524151,637.00
1524166,581.00
1524183,500.00
1524199,464.00
1524215,461.00
1524230,454.00
1524245,413.00
1524262,742.00
1524278,924.00
1524293,315.00
1524309,409.00
1524325,463.00
1524341,316.00
1524357,296.00
1524373,392.00
1524388,388.00
1524404,504.00
1524419,570.00
1524436,568.00
1524452,561.00
1524468,526.00
1524482,550.00
1524499,625.00
1524515,636.00
1524531,644.00
1524547,591.00
1524561,536.00
1524578,528.00
1524594,506.00
1524610,520.00
1524626,502.00
1524641,570.00
1524657,994.00
1524673,674.00
1524689,398.00
1524704,461.00
1524720,525.00
1524736,518.00
1524751,526.00
1524768,536.00
1524784,557.00
1524800,593.00
1524815,627.00
1524831,615.00
1524847,546.00
1524863,449.00
1524879,486.00
1524893,505.00
1524910,614.00
1524926,639.00
1524942,569.00
1524958,482.00
1524973,526.00
1524989,481.00
1525005,470.00
1525021,417.00
1525036,596.00
1525053,982.00
1525068,375.00
1525083,364.00
1525100,441.00
1525116,457.00
1525132,513.00
1525146,560.00
1525163,578.00
1525179,582.00
1525195,628.00
1525211,629.00
1525226,666.00
1525241,630.00
1525258,585.00
1525273,553.00
1525290,520.00
1525305,471.00
1525321,428.00
1525337,448.00
1525352,452.00
1525369,409.00
1525384,396.00
1525399,428.00
1525416,418.00
1525431,668.00
1525448,931.00
1525463,402.00
1525479,465.00
1525494,480.00
1525511,469.00
1525527,519.00
1525543,510.00
1525558,523.00
1525574,577.00
1525590,644.00
1525606,668.00
1525622,649.00
1525637,597.00
1525653,588.00
1525669,592.00
1525685,594.00
1525700,570.00
1525716,553.00
1525732,509.00
1525748,422.00
1525764,497.00
1525780,485.00
1525796,474.00
1525811,355.00
1525827,704.00
1525842,902.00
1525859,328.00
1525875,409.00
1525890,389.00
1525906,415.00
1525921,387.00
1525938,445.00
1525954,429.00
1525968,499.00
1525985,580.00
1526001,614.00
1526017,614.00
1526033,604.00
1526048,581.00
1526064,607.00
1526080,618.00
1526096,621.00
1526112,558.00
1526128,470.00
1526143,425.00
1526159,411.00
1526175,442.00
1526191,399.00
1526207,452.00
1526222,886.00
1526238,640.00
1526254,269.00
1526269,378.00
1526286,343.00
1526301,384.00
1526317,378.00
1526333,367.00
1526349,480.00
1526365,561.00
1526381,566.00
1526395,460.00
1526412,456.00
1526428,438.00
1526444,523.00
1526459,572.00
1526475,565.00
1526491,580.00
1526507,525.00
1526523,509.00
1526539,488.00
1526553,505.00
1526570,510.00
1526585,456.00
1526602,607.00
1526618,1024.00
1526633,548.00
1526649,458.00
1526664,533.00
1526681,506.00
1526697,509.00
1526713,572.00
1526728,628.00
1526743,619.00
1526760,625.00
1526776,677.00
1526792,730.00
1526807,472.00
1526822,441.00
1526839,589.00
1526855,657.00
1526870,655.00
1526886,534.00
1526902,457.00
1526918,350.00
1526933,276.00
1526950,266.00
1526964,319.00
1526981,350.00
1526997,718.00
1527013,948.00
1527029,338.00
1527044,389.00
1527059,513.00
1527076,569.00
1527092,624.00
1527108,590.00
1527123,582.00
1527139,621.00
1527155,622.00
1527170,626.00
1527187,638.00
1527203,579.00
1527217,549.00
1527234,489.00
1527250,487.00
1527266,509.00
1527282,546.00
1527297,480.00
1527313,463.00
1527329,430.00
1527345,480.00
1527361,470.00
1527377,450.00
1527391,652.00
1527408,853.00
1527424,319.00
1527440,428.00
1527456,510.00
1527471,523.00
1527487,512.00
1527503,590.00
1527519,600.00
1527535,588.00
1527550,609.00
1527566,612.00
1527581,590.00
1527598,555.00
1527614,518.00
1527630,528.00
1527645,513.00
1527661,554.00
1527677,517.00
1527693,420.00
1527709,358.00
1527724,375.00
1527740,367.00
1527756,332.00
1527772,405.00
1527788,729.00
1527803,844.00
1527819,281.00
1527834,374.00
1527851,530.00
1527866,549.00
1527882,558.00
1527898,557.00
1527914,593.00
1527930,626.00
1527946,702.00
1527962,724.00
1527977,721.00
1527992,732.00
1528009,686.00
1528025,643.00
1528041,679.00
1528056,638.00
1528072,590.00
1528088,462.00
1528104,353.00
1528120,427.00
1528136,352.00
1528150,315.00
1528167,225.00
1528183,721.00
1528199,638.00
1528214,259.00
1528230,389.00
1528246,512.00
1528262,514.00
1528278,494.00
1528294,509.00
1528309,552.00
1528325,580.00
1528341,581.00
1528357,570.00
1528372,581.00
1528388,585.00
1716212,603.00
1716222,619.00
1716232,628.00
1716242,625.00
1716252,612.00
1716751,630.00
1716762,620.00
1716772,567.00
1716782,521.00
1716792,502.00
1716802,490.00
1716812,506.00
1716822,488.00
1716832,493.00
1716842,489.00
1716853,493.00
1717028,499.00
1717038,506.00
1717048,501.00
1717058,506.00
1717071,507.00
1717082,510.00
1717092,513.00
1717102,524.00
1717112,518.00
1717122,530.00
1717132,535.00
1717142,547.00
1717152,532.00
1717162,540.00
1717172,543.00
1717182,540.00
1717192,549.00
1717202,558.00
1717212,566.00
1717222,561.00
1717232,559.00
1717242,568.00
1717252,568.00
1717262,560.00
1717272,552.00
1717282,505.00
1717292,470.00
1717302,446.00
1717312,452.00
1717322,448.00
1717332,438.00
1717342,441.00
1717352,444.00
1717362,436.00
1717372,374.00
1717382,391.00
1717392,566.00
1717402,894.00
1717412,951.00
1717422,471.00
1717432,349.00
1717442,392.00
1717452,410.00
1717462,427.00
1717472,436.00
1717482,441.00
1717492,445.00
1717502,433.00
1717512,446.00
1717522,445.00
1717532,448.00
1717542,449.00
1717552,463.00
1717562,478.00
1717572,481.00
1717582,496.00
1717593,494.00
1717609,507.00
1717625,517.00
1717640,497.00
1717656,507.00
1717672,505.00
1717688,511.00
1717704,526.00
1717719,536.00
1717735,552.00
1717751,594.00
1717767,622.00
1717783,617.00
1717799,538.00
1717814,501.00
1717830,498.00
1717846,501.00
1717862,499.00
1717878,463.00
1717893,449.00
1717909,850.00
1717925,914.00
1717941,391.00
1717957,452.00
1717973,463.00
1717988,481.00
1718004,484.00
1718020,487.00
1718036,494.00
1718052,506.00
1718067,518.00
1718083,546.00
1718099,556.00
1718115,559.00
1718131,565.00
1718147,578.00
1718162,570.00
1718178,556.00
1718194,555.00
1718210,565.00
1718226,564.00
1718241,583.00
1718257,605.00
1718273,633.00
1718289,630.00
1718305,594.00
1718321,514.00
1718336,483.00
1718352,470.00
1718368,457.00
1718384,457.00
1718400,388.00
1718415,488.00
1718431,975.00
1718447,588.00
1718463,389.00
1718479,436.00
1718495,465.00
1718510,469.00
1718526,476.00
1718542,485.00
1718558,502.00
1718574,519.00
1718589,530.00
1718605,541.00
1718621,546.00
1718637,561.00
1718653,567.00
1718669,576.00
1718684,567.00
1718700,554.00
1718716,552.00
1718732,566.00
1718748,558.00
1718763,584.00
1718779,601.00
1718795,628.00
1718811,638.00
1718827,590.00
1718843,514.00
1718858,494.00
1718874,496.00
1718890,493.00
1718906,493.00
1718922,425.00
1718937,547.00
1718953,1024.00
1718969,542.00
1718985,417.00
1719001,460.00
1719017,466.00
1719032,482.00
1719048,481.00
1719064,482.00
1719080,488.00
1719096,498.00
1719111,499.00
1719127,516.00
1719143,511.00
1719159,524.00
1719175,528.00
1719191,529.00
1719206,528.00
1719222,524.00
1719238,522.00
1719254,522.00
1719270,524.00
1719285,557.00
1719301,576.00
1719317,601.00
1719333,588.00
1719349,501.00
1719365,457.00
1719380,449.00
1719396,452.00
1719412,450.00
1719428,421.00
1719444,380.00
1719459,689.00
1719475,920.00
1719491,341.00
1719507,418.00
1719523,435.00
1719539,444.00
1719554,446.00
1719570,449.00
1719586,461.00
1719602,470.00
1719618,485.00
1719633,494.00
1719649,501.00
1719665,502.00
1719681,512.00
1719697,533.00
1719713,522.00
1719728,510.00
1719744,510.00
1719760,510.00
1719776,525.00
1719792,553.00
1719807,544.00
1719823,566.00
1719839,565.00
1719855,532.00
1719871,461.00
1719887,447.00
1719902,450.00
1719918,446.00
1719934,447.00
1719950,366.00
1719966,606.00
1719981,1017.00
1719997,439.00
1720013,424.00
1720029,454.00
1720045,453.00
1720060,442.00
1720076,449.00
1720092,459.00
1720108,478.00
1720124,489.00
1720140,498.00
1720155,523.00
1720171,549.00
1720187,570.00
1720203,581.00
1720219,568.00
1720234,557.00
1720250,562.00
1720266,562.00
1720282,571.00
1720298,568.00
1720314,549.00
1720329,592.00
1720345,612.00
1720361,585.00
1720377,523.00
1720393,506.00
1720408,487.00
1720424,489.00
1720440,490.00
1720456,430.00
1720472,546.00
1720488,980.00
1720503,537.00
1720519,388.00
1720535,454.00
1720551,468.00
1720567,496.00
1720582,494.00
1720598,507.00
1720614,544.00
1720630,554.00
1720646,595.00
1720662,561.00
1720677,566.00
1720693,596.00
1720709,603.00
1720725,643.00
1720741,593.00
1720756,568.00
1720772,571.00
1720788,573.00
1720804,598.00
1720820,619.00
1720836,643.00
1720852,631.00
1720867,564.00
1720883,496.00
1720899,523.00
1720915,500.00
1720931,506.00
1720946,538.00
1720962,436.00
1720978,621.00
1720994,1024.00
1721010,440.00
1721025,387.00
1721041,444.00
1721057,437.00
1721073,454.00
1721089,438.00
1721104,457.00
1721120,440.00
1721136,487.00
1721152,495.00
1721168,474.00
1721184,461.00
1721199,445.00
1721215,448.00
1721231,461.00
1721247,486.00
1721263,489.00
1721278,472.00
1721294,524.00
1721310,399.00
1721326,303.00
1721342,498.00
1721358,553.00
1721373,466.00
1721389,457.00
1721405,463.00
1721421,466.00
1721437,451.00
1721452,421.00
1721468,414.00
1721484,810.00
1721500,753.00
1721516,361.00
1721532,390.00
1721547,408.00
1721563,408.00
1721579,352.00
1721595,436.00
1721611,463.00
1721626,476.00
1721642,472.00
1721658,496.00
1721674,554.00
1721690,565.00
1721706,553.00
1721721,554.00
1721737,572.00
1721753,582.00
1721769,565.00
1721785,561.00
1721801,618.00
1721816,617.00
1721832,597.00
1721848,550.00
1721864,536.00
1721880,541.00
1721895,547.00
1721911,500.00
1721927,510.00
1721943,509.00
1721959,485.00
1721974,771.00
1721990,945.00
1722006,440.00
1722022,478.00
1722038,549.00
1722054,565.00
1722069,601.00
1722085,568.00
1722101,518.00
1722117,530.00
1722133,561.00
1722148,584.00
1722164,579.00
1722180,601.00
1722196,629.00
1722212,632.00
1722228,556.00
1722243,549.00
1722259,603.00
1722275,547.00
1722291,446.00
1722307,468.00
1722323,532.00
1722338,560.00
1722354,573.00
1722370,603.00
1722386,634.00
1722402,628.00
1722417,569.00
1722433,450.00
1722449,403.00
1722465,781.00
1722481,869.00
1722497,382.00
1722512,475.00
1722528,520.00
1722544,512.00
1722560,482.00
1722576,501.00
1722591,529.00
1722607,535.00
1722623,554.00
1722639,591.00
1722655,592.00
1722670,588.00
1722686,585.00
1722702,571.00
1722718,554.00
1722734,469.00
1722750,452.00
1722765,408.00
1722781,444.00
1722797,456.00
1722813,492.00
1722829,478.00
1722844,428.00
1722860,381.00
1722876,365.00
1722892,358.00
1722908,378.00
1722924,402.00
1722939,424.00
1722955,748.00
1722971,797.00
1722987,373.00
1723003,413.00
1723019,426.00
1723034,435.00
1723050,387.00
1723066,442.00
1723082,483.00
1723098,529.00
1723113,506.00
1723129,494.00
1723145,538.00
1723161,567.00
1723177,504.00
1723193,514.00
1723208,498.00
1723224,362.00
1723240,261.00
1723256,366.00
1723272,504.00
1723287,613.00
1723303,715.00
1723319,708.00
1723335,641.00
1723351,577.00
1723367,509.00
1723382,505.00
1723398,481.00
1723414,450.00
1723430,441.00
1723446,739.00
1723461,1024.00
1723477,485.00
1723493,470.00
1723509,494.00
1723525,499.00
1723541,488.00
1723556,518.00
1723572,545.00
1723588,511.00
1723604,500.00
1723620,445.00
1723635,453.00
1723651,476.00
1723667,560.00
1723683,521.00
1723699,475.00
1723715,493.00
1723730,588.00
1723746,452.00
1723762,462.00
1723778,525.00
1723794,580.00
1723809,577.00
1723825,513.00
1723841,436.00
1723857,410.00
1723873,471.00
1723889,507.00
1723904,528.00
1723920,486.00
1723936,412.00
1723952,624.00
1723968,916.00
1723983,472.00
1723999,497.00
1724015,508.00
1724031,504.00
1724047,501.00
1724063,530.00
1724078,494.00
1724094,543.00
1724110,462.00
1724126,331.00
1724142,454.00
1724157,533.00
1724173,549.00
1724189,562.00
1724205,612.00
1724221,630.00
1724237,588.00
1724252,571.00
1724268,603.00
1724284,654.00
1724300,663.00
1724316,626.00
1724331,636.00
1724347,636.00
1724363,545.00
1724379,494.00
1724395,465.00
1724411,481.00
1724426,477.00
1724442,410.00
1724458,651.00
1724474,1024.00
1724490,484.00
1724505,412.00
1724521,452.00
1724537,484.00
1724553,402.00
1724569,394.00
1724585,316.00
1724600,364.00
1724616,450.00
1724632,398.00
1724648,523.00
1724664,576.00
1724679,530.00
1724695,505.00
1724711,517.00
1724727,526.00
1724743,538.00
1724759,561.00
1724774,573.00
1724790,625.00
1724806,650.00
1724822,679.00
1724838,666.00
1724853,677.00
1724869,586.00
1724885,538.00
1724901,533.00
1724917,494.00
1724933,508.00
1724948,469.00
1724964,639.00
1724980,1024.00
1724996,627.00
1725012,300.00
1725027,394.00
1725043,410.00
1725059,337.00
1725075,374.00
1725091,418.00
1725107,465.00
1725122,511.00
1725138,603.00
1725154,628.00
1725170,619.00
1725186,583.00
1725201,514.00
1725217,513.00
1725233,462.00
1725249,478.00
1725265,435.00
1725280,501.00
1725296,604.00
1725312,554.00
1725328,595.00
1725344,558.00
1725360,463.00
1725375,375.00
