1893078,558.00
1893088,706.00
1893098,975.00
1893108,1024.00
1893118,968.00
1893128,523.00
1893138,492.00
1893148,529.00
1893158,544.00
1893168,510.00
1893178,522.00
1893188,525.00
1893198,519.00
1893208,471.00
1893218,456.00
1893228,436.00
1893238,453.00
1893248,480.00
1893258,541.00
1893268,577.00
1893278,585.00
1893288,549.00
1893298,545.00
1893308,522.00
1893318,508.00
1893328,541.00
1893338,584.00
1893348,622.00
1893358,628.00
1893368,569.00
1893378,549.00
1893388,522.00
1893398,511.00
1893408,492.00
1893418,471.00
1893428,452.00
1893438,463.00
1893448,482.00
1893458,512.00
1893468,532.00
1893478,542.00
1893488,517.00
1893498,507.00
1893508,514.00
1893518,662.00
1893528,991.00
1893538,1024.00
1893548,825.00
1893558,377.00
1893568,377.00
1893578,465.00
1893588,522.00
1893598,529.00
1893608,497.00
1893618,486.00
1893628,476.00
1893639,487.00
1893655,498.00
1893671,535.00
1893687,531.00
1893702,501.00
1893718,486.00
1893733,442.00
1893750,377.00
1893766,385.00
1893781,510.00
1893797,578.00
1893813,566.00
1893829,520.00
1893845,464.00
1893860,461.00
1893876,456.00
1893892,436.00
1893908,365.00
1893924,332.00
1893940,350.00
1893955,770.00
1893971,860.00
1893987,269.00
1894003,327.00
1894019,342.00
1894034,379.00
1894050,433.00
1894066,495.00
1894082,529.00
1894098,566.00
1894114,627.00
1894129,633.00
1894145,574.00
1894161,472.00
1894177,472.00
1894193,444.00
1894208,493.00
1894224,544.00
1894240,557.00
1894256,561.00
1894272,386.00
1894288,436.00
1894303,450.00
1894319,450.00
1894335,482.00
1894351,391.00
1894367,496.00
1894383,938.00
1894398,1000.00
1894414,402.00
1894430,495.00
1894446,493.00
1894462,427.00
1894477,428.00
1894493,463.00
1894509,490.00
1894525,545.00
1894541,577.00
1894557,640.00
1894572,633.00
1894588,594.00
1894604,573.00
1894620,580.00
1894636,556.00
1894651,591.00
1894667,520.00
1894683,486.00
1894699,460.00
1894715,445.00
1894730,498.00
1894746,473.00
1894762,398.00
1894778,488.00
1894794,470.00
1894810,762.00
1894825,871.00
1894841,318.00
1894857,356.00
1894873,349.00
1894889,360.00
1894905,390.00
1894920,509.00
1894936,502.00
1894952,567.00
1894968,622.00
1894984,665.00
1894999,672.00
1895015,660.00
1895031,673.00
1895047,613.00
1895063,652.00
1895079,687.00
1895094,658.00
1895110,646.00
1895126,548.00
1895142,570.00
1895158,528.00
1895173,516.00
1895189,466.00
1896468,454.00
1896478,470.00
1896488,471.00
1896498,605.00
1896508,1006.00
1896518,1024.00
1896528,660.00
1896538,350.00
1896548,392.00
1896558,442.00
1896568,472.00
1896578,485.00
1896588,493.00
1896598,465.00
1896608,406.00
1896618,480.00
1896628,478.00
1896638,468.00
1896648,533.00
1896658,580.00
1896668,535.00
1896678,526.00
1896688,543.00
1896698,565.00
1896708,607.00
1896718,603.00
1896728,570.00
1896738,582.00
1896748,604.00
1896758,644.00
1896768,656.00
1896778,652.00
1896788,584.00
1896798,547.00
1896808,488.00
1896818,413.00
1896828,378.00
1896838,384.00
1896848,386.00
1896858,367.00
1896868,358.00
1896878,369.00
1896888,378.00
1896898,356.00
1896908,349.00
1896918,502.00
1896928,835.00
1896938,1022.00
1896948,580.00
1896958,308.00
1896968,333.00
1896978,380.00
1896988,399.00
1896998,427.00
1897008,440.00
1897024,486.00
1897040,462.00
1897056,458.00
1897072,483.00
1897087,483.00
1897103,573.00
1897119,545.00
1897135,472.00
1897151,459.00
1897167,525.00
1897182,610.00
1897198,601.00
1897214,613.00
1897230,578.00
1897246,482.00
1897261,450.00
1897277,475.00
1897293,429.00
1897309,363.00
1897325,330.00
1897341,596.00
1897356,1024.00
1897372,432.00
1897388,376.00
1897404,447.00
1897420,456.00
1897436,499.00
1897451,525.00
1897467,562.00
1897483,596.00
1897499,586.00
1897515,602.00
1897530,613.00
1897546,621.00
1897562,617.00
1897577,543.00
1897594,580.00
1897610,580.00
1897625,573.00
1897641,613.00
1897656,541.00
1897673,424.00
1897689,408.00
1897704,417.00
1897720,454.00
1897736,441.00
1897752,418.00
1897768,790.00
1897783,922.00
1897799,421.00
1897815,436.00
1897831,461.00
1897847,477.00
1897863,528.00
1897878,532.00
1897894,596.00
1897910,612.00
1897926,646.00
1897942,643.00
1897957,616.00
1897973,583.00
1897989,588.00
1898005,624.00
1898021,646.00
1898037,627.00
1898052,636.00
1898068,567.00
1898084,452.00
1898100,483.00
1898116,500.00
1898131,495.00
1898147,480.00
1898163,464.00
1898179,646.00
1898195,1024.00
1898211,975.00
1898226,461.00
1898242,530.00
1898258,436.00
1898274,478.00
1898290,485.00
1898305,516.00
1898321,499.00
1898337,524.00
1898353,545.00
1898369,620.00
1898385,663.00
1898400,571.00
1898416,556.00
1898432,554.00
1898448,545.00
1898464,591.00
1898479,595.00
1898495,556.00
1898511,474.00
1898527,449.00
1898543,423.00
1898559,440.00
1898574,418.00
1898590,326.00
1898606,600.00
1898622,1024.00
1898638,306.00
1898653,268.00
1898669,330.00
1898685,331.00
1898701,330.00
1898717,462.00
1898733,507.00
1898748,521.00
1898764,549.00
1898780,557.00
1898796,513.00
1898812,528.00
1898827,526.00
1898843,528.00
1898859,549.00
1898875,562.00
1898891,550.00
1898907,538.00
1898922,464.00
1898938,452.00
1898954,445.00
1898970,464.00
1898986,459.00
1899001,456.00
1899017,448.00
1899033,855.00
1899049,860.00
1899065,308.00
1899081,432.00
1899096,433.00
1899112,410.00
1899128,425.00
1899144,493.00
1899160,519.00
1899175,533.00
1899191,584.00
1899207,593.00
1899223,578.00
1899239,555.00
1899255,544.00
1899270,542.00
1899286,511.00
1899302,495.00
1899318,489.00
1899334,466.00
1899349,376.00
1899365,448.00
1899381,516.00
1899397,519.00
1899413,516.00
1899429,448.00
1899444,492.00
1899460,1016.00
1899476,732.00
1899492,372.00
1899508,460.00
1899523,457.00
1899539,492.00
1899555,495.00
1899571,547.00
1899587,566.00
1899603,629.00
1899618,607.00
1899634,636.00
1899650,642.00
1899666,609.00
1899682,586.00
1899697,580.00
1899713,581.00
1899729,619.00
1899745,636.00
1899761,617.00
1899777,545.00
1899792,499.00
1899808,486.00
1899824,463.00
1899840,485.00
1899856,465.00
1899871,572.00
1899887,1024.00
1899903,643.00
1899919,372.00
1899935,436.00
1899951,447.00
1899966,442.00
1899982,483.00
1899998,525.00
1900312,1024.00
1900323,652.00
1900333,331.00
1900343,354.00
1900353,402.00
1900363,440.00
1900373,450.00
1900383,459.00
1900393,465.00
1900403,487.00
1900413,497.00
1900423,502.00
1900434,495.00
1900444,472.00
1900454,484.00
1900464,536.00
1900474,559.00
1900484,523.00
1900494,492.00
1900504,466.00
1900514,468.00
1900524,468.00
1900534,446.00
1900544,511.00
1900554,487.00
1900564,511.00
1900574,547.00
1900584,574.00
1900594,540.00
1900604,487.00
1900614,430.00
1900624,410.00
1900634,406.00
1900644,387.00
1900654,358.00
1900664,368.00
1900674,384.00
1900684,404.00
1900694,352.00
1900704,340.00
1900714,473.00
1900724,826.00
1900734,1024.00
1900744,571.00
1900754,262.00
1900764,320.00
1900774,356.00
1900784,361.00
1900794,403.00
1900804,402.00
1900814,433.00
1900824,484.00
1900836,468.00
1900852,490.00
1900868,538.00
1900884,512.00
1900900,488.00
1900916,494.00
1900931,471.00
1900947,474.00
1900963,480.00
1900979,531.00
1900995,528.00
1901010,550.00
1901026,538.00
1901042,440.00
1901058,390.00
1901074,388.00
1901090,446.00
1901105,442.00
1901121,375.00
1901137,494.00
1901153,1006.00
1901169,519.00
1901185,375.00
1901200,463.00
1901216,481.00
1901232,559.00
1901248,578.00
1901264,603.00
1901279,645.00
1901295,676.00
1901311,713.00
1901327,778.00
1901343,681.00
1901359,654.00
1901374,571.00
1901390,546.00
1901406,559.00
1901422,618.00
1901438,670.00
1901453,684.00
1901469,608.00
1901485,571.00
1901501,550.00
1901517,554.00
1901533,556.00
1901548,509.00
1901564,684.00
1901580,1024.00
1901596,602.00
1901612,452.00
1901627,516.00
1901643,535.00
1901659,536.00
1901675,540.00
1901691,567.00
1901707,569.00
1901722,597.00
1901738,618.00
1901753,615.00
1901770,601.00
1901786,569.00
1901801,528.00
1901817,532.00
1901833,553.00
1901849,589.00
1901865,573.00
1901880,528.00
1901896,451.00
1901912,445.00
1901928,487.00
1901944,475.00
1901960,439.00
1901975,372.00
1901991,670.00
1902007,1015.00
1902023,276.00
1902039,340.00
1902054,397.00
1902070,397.00
1902086,400.00
1902102,406.00
1902118,405.00
1902134,456.00
1902149,494.00
1902165,525.00
1902181,517.00
1902197,497.00
1902213,494.00
1902228,499.00
1902244,521.00
1902260,558.00
1902276,573.00
1902292,542.00
1902308,478.00
1902323,420.00
1902339,469.00
1902355,506.00
1902371,465.00
1902387,326.00
1902402,398.00
1902418,924.00
1902434,758.00
1902450,247.00
1902466,345.00
1902482,394.00
1902497,389.00
1902513,439.00
1902529,445.00
1902545,488.00
1902561,518.00
1902576,538.00
1902592,509.00
1902608,507.00
1902624,484.00
2129395,456.00
2129406,478.00
2129416,483.00
2129426,483.00
2129436,497.00
2129446,505.00
2129974,483.00
2129984,487.00
2129994,517.00
2130005,504.00
2130174,555.00
2130185,601.00
2130195,583.00
2130205,589.00
2130215,621.00
2130225,607.00
2130235,601.00
2130245,576.00
2130255,504.00
2130265,486.00
2130275,484.00
2130285,468.00
2130296,480.00
2130306,492.00
2130316,481.00
2130326,475.00
2130336,380.00
2130346,465.00
2130356,772.00
2130366,1024.00
2130376,809.00
2130386,408.00
2130396,405.00
2130406,447.00
2130416,453.00
2130426,444.00
2130436,462.00
2130446,465.00
2130456,478.00
2130466,482.00
2130476,482.00
2130486,486.00
2130496,486.00
2130506,514.00
2130516,504.00
2130526,531.00
2130536,544.00
2130546,544.00
2130556,543.00
2130566,547.00
2130576,570.00
2130586,547.00
2130596,555.00
2130606,536.00
2130616,533.00
2130626,532.00
2130636,536.00
2130646,523.00
2130656,535.00
2130666,512.00
2130676,533.00
2130686,548.00
2130696,560.00
2130706,585.00
2130716,569.00
2130726,589.00
2130738,597.00
2130754,561.00
2130770,507.00
2130786,476.00
2130802,461.00
2130817,459.00
2130833,458.00
2130849,374.00
2130865,555.00
2130881,1024.00
2130897,458.00
2130912,413.00
2130928,446.00
2130944,435.00
2130960,463.00
2130976,484.00
2130991,464.00
2131007,488.00
2131023,500.00
2131039,521.00
2131055,522.00
2131071,533.00
2131086,528.00
2131102,532.00
2131118,538.00
2131134,529.00
2131150,525.00
2131165,530.00
2131181,523.00
2131197,511.00
2131213,514.00
2131229,533.00
2131245,564.00
2131260,588.00
2131276,512.00
2131292,480.00
2131308,472.00
2131324,482.00
2131339,505.00
2131355,418.00
2131371,352.00
2131387,796.00
2131403,602.00
2131419,262.00
2131434,376.00
2131450,445.00
2131466,451.00
2131482,482.00
2131498,509.00
2131513,529.00
2131529,541.00
2131545,543.00
2131561,567.00
2131577,593.00
2131593,618.00
2131608,614.00
2131624,578.00
2131640,576.00
2131656,570.00
2131672,582.00
2131687,584.00
2131703,614.00
2131719,646.00
2131735,686.00
2131751,687.00
2131767,643.00
2131782,576.00
2131798,547.00
2131814,545.00
2131830,544.00
2131846,543.00
2131861,474.00
2131877,636.00
2131893,1024.00
2131909,512.00
2131925,450.00
2131940,495.00
2131956,478.00
2131972,481.00
2131988,488.00
2132004,501.00
2132020,504.00
2132035,490.00
2132051,505.00
2132067,487.00
2132083,487.00
2132099,501.00
2132115,512.00
2132130,526.00
2132146,511.00
2132162,533.00
2132178,504.00
2132194,502.00
2132209,483.00
2132225,557.00
2132241,565.00
2132257,540.00
2132273,465.00
2132289,442.00
2132304,440.00
2132320,447.00
2132336,449.00
2132352,372.00
2132368,506.00
2132383,991.00
2132399,541.00
2132415,408.00
2132431,457.00
2132447,461.00
2132463,461.00
2132478,463.00
2132494,475.00
2132510,463.00
2132526,472.00
2132542,494.00
2132557,513.00
2132573,517.00
2132589,524.00
2132605,520.00
2132621,512.00
2132637,485.00
2132652,483.00
2132668,494.00
2132684,530.00
2132700,553.00
2132716,589.00
2132731,590.00
2132747,558.00
2132763,487.00
2132779,475.00
2132795,466.00
2132811,468.00
2132826,468.00
2132842,380.00
2132858,591.00
2132874,1024.00
2132890,416.00
2132905,423.00
2132921,429.00
2132937,464.00
2132953,442.00
2132969,458.00
2132985,500.00
2133000,502.00
2133016,506.00
2133032,528.00
2133048,523.00
2133064,521.00
2133079,521.00
2133095,540.00
2133111,514.00
2133127,510.00
2133143,496.00
2133159,513.00
2133174,528.00
2133190,584.00
2133206,591.00
2133222,602.00
2133238,507.00
2133253,497.00
2133269,486.00
2133285,473.00
2133301,438.00
2133317,378.00
2133333,372.00
2133348,770.00
2133364,715.00
2133380,317.00
2133396,418.00
2133412,296.00
2133427,339.00
2133443,332.00
2133459,367.00
2133475,354.00
2133491,377.00
2133507,446.00
2133522,578.00
2133538,545.00
2133554,529.00
2133570,497.00
2133586,442.00
2133601,312.00
2133617,404.00
2133633,392.00
2133649,387.00
2133665,459.00
2133680,681.00
2133696,693.00
2133712,480.00
2133728,631.00
2133744,658.00
2133760,625.00
2133775,541.00
2133791,477.00
2133807,376.00
2133823,668.00
2133839,958.00
2133854,470.00
2133870,228.00
2133886,14.00
2133902,10.00
2133918,504.00
2133934,542.00
2133949,50.00
2133965,265.00
2133981,760.00
2133997,866.00
2134013,742.00
2134029,476.00
2134044,482.00
2134060,626.00
2134076,768.00
2134092,747.00
2134108,580.00
2134123,868.00
2134139,677.00
2134155,258.00
2134171,444.00
2134187,411.00
2134203,549.00
2134218,414.00
2134234,543.00
2134250,327.00
2134266,472.00
2134282,681.00
2134297,1024.00
2134313,997.00
2134329,441.00
2134345,559.00
2134361,15.00
2134376,87.00
2134392,304.00
2134408,87.00
2134424,14.00
2134440,13.00
2134456,66.00
2134471,541.00
2134487,461.00
2134503,915.00
2134519,1024.00
2134535,859.00
2134550,766.00
2134566,1024.00
2134582,800.00
2134598,1020.00
2134614,712.00
2134630,749.00
2134645,529.00
2134661,351.00
2134677,12.00
2134693,14.00
2134709,248.00
2134725,549.00
2134740,507.00
2134756,1024.00
2134772,1024.00
2134788,618.00
2134804,596.00
2134819,556.00
2134835,600.00
2134851,385.00
2134867,366.00
2134883,306.00
2134899,52.00
2134914,327.00
2134930,89.00
2134946,15.00
2134962,260.00
2134978,837.00
2134993,1024.00
2135009,1024.00
2135025,1024.00
2135041,1024.00
2135057,1024.00
2135073,1024.00
2135088,735.00
2135104,78.00
2135120,285.00
2135136,204.00
2135152,17.00
2135167,20.00
2135183,142.00
2135199,1024.00
2135215,1024.00
2135231,610.00
2135247,1008.00
2135262,892.00
2135278,745.00
2135294,766.00
2135310,732.00
2135326,197.00
2135341,57.00
2135357,459.00
2135373,349.00
2135389,397.00
2135405,15.00
2135421,10.00
2135436,364.00
2135452,681.00
2135468,1024.00
2135484,1024.00
2135500,931.00
2135515,1024.00
2135531,588.00
2135547,403.00
2135563,366.00
2135579,645.00
2135594,352.00
2135610,374.00
2135626,174.00
2135642,123.00
2135658,850.00
2135674,521.00
2135689,742.00
2135705,574.00
2135721,806.00
2135737,502.00
2135753,543.00
2135768,482.00
2135784,52.00
2135800,456.00
2135816,379.00
2135832,394.00
2135848,835.00
2135863,314.00
2135879,205.00
2135895,10.00
2135911,646.00
2135927,981.00
2135943,1024.00
2135958,892.00
2135974,918.00
2135990,602.00
2136006,230.00
2136022,70.00
2136037,159.00
2136053,798.00
2136069,370.00
2136085,473.00
2136101,291.00
2136117,14.00
2136132,9.00
2136148,435.00
2136164,385.00
2136180,929.00
2136196,825.00
2136211,565.00
2136227,876.00
2136243,510.00
2136259,714.00
2136275,140.00
2136291,945.00
2136306,415.00
2136322,577.00
2136338,583.00
2136354,394.00
2136370,1024.00
2136385,813.00
2136401,569.00
2136417,505.00
2136433,869.00
2136449,692.00
2136465,915.00
2136480,837.00
2136496,44.00
2136512,13.00
2136528,1024.00
2136544,840.00
2136560,732.00
2136575,16.00
2136591,17.00
2136607,461.00
2136623,824.00
2136639,725.00
2136654,711.00
2136670,792.00
2136686,1024.00
2136702,690.00
2136718,753.00
2136734,789.00
2136749,494.00
2136765,540.00
2136781,648.00
2136797,846.00
2136813,639.00
2136828,808.00
2136844,423.00
2136860,344.00
2136876,622.00
2136892,582.00
2136908,1024.00
2136923,1024.00
2136939,1024.00
2136955,1024.00
2136971,1024.00
2136987,16.00
2137002,10.00
2137018,524.00
2137034,1024.00
2137050,795.00
2137066,220.00
2137082,17.00
2137097,153.00
2137113,615.00
2137129,583.00
2137145,370.00
2137161,821.00
2137176,1024.00
2137192,799.00
2137208,571.00
2137224,855.00
2137240,392.00
2137256,836.00
2137271,123.00
2137287,761.00
2137303,548.00
2137319,700.00
2137335,79.00
2137350,405.00
2137366,1024.00
2137382,49.00
2137398,214.00
2137414,717.00
2137430,994.00
2137445,1024.00
2137461,1024.00
2137477,186.00
2137493,15.00
2137509,12.00
2137524,856.00
2137540,774.00
2137556,468.00
2137572,70.00
2137588,14.00
2137604,573.00
2137619,598.00
2137635,669.00
2137651,1024.00
2137667,814.00
2137683,679.00
2137698,557.00
2137714,653.00
2137730,534.00
2137746,82.00
2137762,797.00
2137778,1024.00
2137793,256.00
2137809,474.00
2137825,374.00
2137841,412.00
2137857,471.00
2137872,492.00
2137888,307.00
2137904,746.00
2137920,977.00
2137936,883.00
2137952,1024.00
2137967,354.00
2137983,14.00
2137999,632.00
2138015,1024.00
2138031,1021.00
2138046,474.00
2138062,16.00
2138078,581.00
2138094,644.00
2138110,876.00
2138126,242.00
2138141,665.00
2138157,996.00
2138173,980.00
2138189,1024.00
2138205,560.00
2138221,12.00
2138236,366.00
2138252,392.00
2138268,789.00
2138284,604.00
2138300,306.00
2138315,149.00
2138331,270.00
2138347,734.00
2138363,175.00
2138379,352.00
2138395,861.00
2138410,871.00
2138426,821.00
2138442,1024.00
2138458,937.00
2138474,12.00
2138489,12.00
2138505,513.00
2138521,1024.00
2138537,313.00
2138553,19.00
2138569,18.00
2138584,506.00
2138600,1014.00
2138616,13.00
2138632,472.00
2141229,718.00
2141240,398.00
2141250,697.00
2141260,769.00
2142370,435.00
2142380,366.00
2142390,396.00
2142400,405.00
2142410,422.00
2142420,715.00
2142430,1024.00
2142440,1024.00
2142450,1024.00
2142460,577.00
2142470,348.00
2142480,435.00
2142490,545.00
2142500,638.00
2142510,617.00
2142520,757.00
2142530,758.00
2142540,692.00
2142550,718.00
2142560,429.00
2142570,281.00
2142580,414.00
2142590,495.00
2142600,524.00
2142610,669.00
2142620,643.00
2142630,672.00
2142640,552.00
2142650,232.00
2142660,476.00
2142670,401.00
2142680,385.00
2142690,609.00
2142700,562.00
2142710,500.00
2142720,329.00
2142730,281.00
2142740,364.00
2142750,478.00
2142760,529.00
2142770,548.00
2142780,529.00
2142790,510.00
2142800,660.00
2142810,686.00
2142820,504.00
2142830,13.00
2142840,14.00
2142850,15.00
2142860,13.00
2142870,76.00
2142880,470.00
2142890,202.00
2142900,198.00
2142910,322.00
2142920,16.00
2142934,15.00
2142950,596.00
2142966,837.00
2142982,984.00
2142998,1024.00
2143014,1024.00
2143029,1024.00
2143045,1024.00
2143061,1024.00
2143077,865.00
2143093,462.00
2143108,213.00
2143124,660.00
2143140,466.00
2143156,847.00
2143172,1024.00
2143187,535.00
2143203,162.00
2143219,631.00
2143235,745.00
2143251,717.00
2143267,453.00
2143282,552.00
2143298,444.00
2143314,541.00
2143330,457.00
2143346,502.00
2143361,537.00
2143377,69.00
2143393,16.00
2143409,588.00
2143425,666.00
2143441,517.00
2143456,253.00
2143472,99.00
2143488,186.00
2143504,353.00
2143520,488.00
2143536,1024.00
2143551,1024.00
2143567,1024.00
2143583,1024.00
2143599,1024.00
2143615,545.00
2143630,12.00
2143646,13.00
2143662,627.00
2143678,797.00
2143694,413.00
2143709,466.00
2143725,446.00
2143741,634.00
2143757,351.00
2143773,673.00
2143789,702.00
2143804,682.00
2143820,560.00
2143836,865.00
2143852,401.00
2143868,537.00
2143883,564.00
2143899,718.00
2143915,12.00
2143931,398.00
2143947,118.00
2143963,16.00
2143978,115.00
2143994,457.00
2144010,354.00
2144026,427.00
2144042,710.00
2144058,1024.00
2144073,895.00
2144089,620.00
2144105,714.00
2144121,1024.00
2144137,807.00
2144152,217.00
2144168,15.00
2144184,697.00
2144200,865.00
2144216,476.00
2144232,204.00
2144247,399.00
2144263,949.00
2144279,403.00
2144295,381.00
2144311,564.00
2144326,679.00
2144342,993.00
2144358,686.00
2144374,720.00
2144390,609.00
2144406,382.00
2144421,99.00
2144437,14.00
2144453,12.00
2144469,738.00
2144485,764.00
2144500,418.00
2144516,48.00
2144532,81.00
2144548,854.00
2144564,1024.00
2144580,902.00
2144595,936.00
2144611,1024.00
2144627,1024.00
2144643,982.00
2144659,819.00
2144674,807.00
2144690,12.00
2144706,195.00
2144722,54.00
2144738,594.00
2144754,331.00
2144769,17.00
2144785,13.00
2144801,519.00
2144817,638.00
2144833,544.00
2144848,535.00
2144864,668.00
2144880,950.00
2144896,782.00
2144912,559.00
2144928,412.00
2144943,235.00
2144959,632.00
2144975,872.00
2144991,864.00
2145007,325.00
2145022,470.00
2145038,398.00
2145054,392.00
2145070,449.00
2145086,249.00
2145102,725.00
2145117,758.00
2145133,747.00
2145149,721.00
2145165,604.00
2145181,105.00
2145196,689.00
2145212,748.00
2145228,1024.00
2145244,528.00
2145260,525.00
2145276,13.00
2145291,27.00
2145307,204.00
2145323,512.00
2145339,701.00
2145355,103.00
2145370,625.00
2145386,687.00
2145402,802.00
2145418,447.00
2145434,654.00
2145450,129.00
2145465,112.00
2145481,16.00
2145497,334.00
2145513,387.00
2145529,704.00
2145544,584.00
2145560,508.00
2145576,688.00
2145592,749.00
2145608,664.00
2145624,656.00
2145639,741.00
2145655,864.00
2145671,500.00
2145687,664.00
2145703,919.00
2145718,531.00
2145734,14.00
2145750,12.00
2145766,1024.00
2145782,652.00
2145798,396.00
2145813,14.00
2145829,14.00
2145845,338.00
2145861,1014.00
2145877,375.00
2145892,412.00
2145908,733.00
2145924,973.00
2145940,865.00
2145956,506.00
2145972,819.00
2145987,220.00
2146003,16.00
2146019,140.00
2146035,912.00
2146051,1024.00
2146066,376.00
2146082,173.00
2146098,474.00
2146114,857.00
2146130,1024.00
2146146,566.00
2146161,878.00
2146177,781.00
2146193,632.00
2146209,454.00
2146225,549.00
2146240,1011.00
2146256,421.00
2146272,140.00
2146288,739.00
2146304,1024.00
2146320,849.00
2146335,496.00
2146351,58.00
2146367,18.00
2146383,895.00
2146399,1024.00
2146414,255.00
2146430,595.00
2146446,787.00
2146462,501.00
2146478,511.00
2146493,774.00
2146509,522.00
2146525,277.00
2146541,15.00
2146557,387.00
2146573,621.00
2146588,628.00
2146604,793.00
2146620,288.00
2146636,514.00
2146652,878.00
2146668,930.00
2146683,627.00
2146699,545.00
2146715,702.00
2146731,977.00
2146747,1024.00
2146762,271.00
2146778,12.00
2146794,10.00
2146810,652.00
2146826,711.00
2146842,414.00
2146857,124.00
2146873,14.00
2146889,16.00
2146905,507.00
2146921,1024.00
2146936,1024.00
2146952,677.00
2146968,848.00
2146984,1009.00
2147000,639.00
2147016,775.00
2147031,834.00
2147047,598.00
2147063,260.00
2147079,865.00
2147095,832.00
2147110,272.00
2147126,301.00
2147142,303.00
2147158,12.00
2147174,63.00
2147190,366.00
2147205,317.00
2147221,532.00
2147237,363.00
2147253,549.00
2147269,786.00
2147284,912.00
2147300,548.00
2147316,273.00
2147332,14.00
2147348,907.00
2147364,592.00
2147379,316.00
2147395,171.00
2147411,10.00
2147427,414.00
2147443,1024.00
2147458,1013.00
2147474,480.00
2147490,550.00
2147506,804.00
2147522,829.00
2147538,524.00
2147553,685.00
2147569,678.00
2147585,111.00
2147601,874.00
2147617,802.00
2147632,357.00
2147648,456.00
2147664,797.00
2147680,387.00
2147696,314.00
2147712,631.00
2147727,677.00
2147743,1024.00
2147759,811.00
2147775,1024.00
2147791,1024.00
2147806,782.00
2147822,936.00
2147838,612.00
2147854,221.00
2147870,14.00
2147886,690.00
2147901,1024.00
2147917,812.00
2147933,561.00
2147949,17.00
2147965,333.00
2147980,905.00
2147996,966.00
2148012,745.00
2148028,783.00
2148044,1024.00
2148060,1024.00
2148075,836.00
2148091,668.00
2148107,831.00
2148123,1024.00
2148139,436.00
2148154,262.00
2148170,139.00
2148186,636.00
2148202,674.00
2148218,421.00
2148234,200.00
2148249,329.00
2148265,1006.00
2148281,855.00
2148297,420.00
2148313,732.00
2148328,981.00
2148344,910.00
2148360,1024.00
2148376,1024.00
2148392,676.00
2148408,15.00
2148423,12.00
2148439,448.00
2148455,919.00
2148471,1024.00
2148487,14.00
2148502,16.00
2148518,125.00
2148534,884.00
2148550,689.00
2148566,490.00
2148582,637.00
2148597,688.00
2148613,506.00
2148629,349.00
2148645,490.00
2148661,468.00
2148676,654.00
2148692,1024.00
2148708,702.00
2148724,333.00
2148740,426.00
2148756,596.00
2148771,495.00
2148787,476.00
2148803,736.00
2148819,1024.00
2148835,856.00
2148850,578.00
2148866,886.00
2148882,788.00
2148898,513.00
2148914,1024.00
2148930,1024.00
2148945,1023.00
2148961,446.00
2148977,643.00
2148993,682.00
2149009,616.00
2149024,236.00
2149040,883.00
2149056,722.00
2149072,986.00
2149088,748.00
2149104,711.00
2149119,552.00
2149135,781.00
2149151,936.00
2149167,541.00
2149183,532.00
2149198,560.00
2149214,572.00
2149230,221.00
2149246,764.00
2149262,415.00
2149278,513.00
2149293,565.00
2149309,487.00
2149325,422.00
2149341,601.00
2149357,730.00
2149372,944.00
2149388,708.00
2149404,391.00
2149420,436.00
2149436,778.00
2149452,800.00
2149467,639.00
2149483,949.00
2149499,665.00
2149515,12.00
2149531,379.00
2149546,889.00
2149562,389.00
2149578,603.00
2149594,429.00
2149610,127.00
2149626,117.00
2149641,12.00
2149657,96.00
2149673,378.00
2149689,888.00
2149705,679.00
2149720,668.00
2149736,358.00
2149752,289.00
2149768,14.00
2149784,139.00
2149800,121.00
2149815,518.00
2149831,980.00
2149847,468.00
2149863,362.00
2149879,108.00
2149894,16.00
2149910,91.00
2149926,674.00
2149942,562.00
2149958,148.00
2149974,418.00
2149989,640.00
2150005,854.00
2150021,677.00
2150037,727.00
2150053,624.00
2150068,12.00
2150084,400.00
2150100,925.00
2150116,181.00
2150132,75.00
2150148,16.00
2150163,14.00
2150179,321.00
2150195,492.00
2150211,784.00
2150227,436.00
2150242,388.00
2150258,692.00
2150274,624.00
2150290,182.00
2150306,596.00
2150322,464.00
2150337,303.00
2150353,429.00
2150369,655.00
2150385,873.00
2150401,305.00
2150416,660.00
2150432,558.00
2150448,327.00
2150464,525.00
2150480,342.00
2150496,715.00
2150511,1024.00
2150527,728.00
2150543,919.00
2150559,956.00
2150575,884.00
2150590,817.00
2150606,86.00
2150622,175.00
2150638,771.00
2150654,411.00
2150670,272.00
2150685,15.00
2150701,568.00
2150717,747.00
2150733,910.00
2150749,819.00
2150764,492.00
2150780,592.00
2150796,962.00
2150812,722.00
2150828,712.00
2150844,1015.00
2150859,447.00
2150875,425.00
2150891,414.00
2150907,612.00
2150923,85.00
2150938,233.00
2164384,210.00
2164395,195.00
2164405,242.00
2164415,522.00
2164425,581.00
2165468,580.00
2165479,295.00
2165489,355.00
2165499,420.00
2165509,452.00
2165519,520.00
2165529,548.00
2165539,675.00
2165549,729.00
2165559,802.00
2165569,800.00
2165579,846.00
2165589,718.00
2165599,696.00
2165609,769.00
2165619,955.00
2165629,973.00
2165639,1024.00
2165649,1024.00
2165659,1001.00
2165669,696.00
2165679,823.00
2165689,667.00
2165699,496.00
2165709,415.00
2165719,448.00
2165729,737.00
2165739,726.00
2165749,106.00
2165759,205.00
2165769,397.00
2165779,447.00
2165789,517.00
2165799,441.00
2165809,468.00
2165819,576.00
2165829,663.00
2165839,640.00
2165849,700.00
2165859,628.00
2165869,600.00
2165879,520.00
2165889,510.00
2165899,535.00
2165909,585.00
2165919,594.00
2165929,757.00
2165939,777.00
2165949,607.00
2165959,746.00
2165969,818.00
2165979,716.00
2165989,621.00
2165999,548.00
2166009,340.00
2166019,209.00
2166029,361.00
2166045,549.00
2166060,975.00
2166076,507.00
2166092,337.00
2166108,168.00
2166124,281.00
2166139,332.00
2166155,392.00
2166171,560.00
2166187,602.00
2166203,724.00
2166219,720.00
2166234,816.00
2166250,1024.00
2166266,1024.00
2166282,991.00
2166298,661.00
2166313,464.00
2166329,481.00
2166345,363.00
2166361,128.00
2166377,819.00
2166393,591.00
2166408,482.00
2166424,549.00
2166440,498.00
2166456,657.00
2166472,614.00
2166487,428.00
2166503,451.00
2166519,639.00
2166535,573.00
2166551,593.00
2166567,574.00
2166582,523.00
2166598,510.00
2166614,475.00
2166630,389.00
2166646,331.00
2166661,392.00
2166677,225.00
2166693,345.00
2166709,773.00
2166725,165.00
2166741,14.00
2166756,12.00
2166772,13.00
2166788,521.00
2166804,277.00
2166820,312.00
2166835,408.00
2166851,306.00
2166867,353.00
2166883,460.00
2166899,406.00
2166915,616.00
2166930,655.00
2166946,646.00
2166962,625.00
2166978,526.00
2166994,628.00
2167009,591.00
2167025,710.00
2167041,1024.00
2167057,362.00
2167073,439.00
2167088,609.00
2167104,363.00
2167120,294.00
2167136,389.00
2167152,268.00
2167168,293.00
2167183,293.00
2167199,210.00
2167215,506.00
2167231,693.00
2167247,487.00
2167262,547.00
2167278,457.00
2167294,418.00
2167310,402.00
2167326,406.00
2167342,94.00
2167357,459.00
2167373,488.00
2167389,170.00
2167405,281.00
2167421,282.00
2167436,380.00
2167452,218.00
2167468,208.00
2167484,266.00
2167500,530.00
2167516,472.00
2167531,592.00
2167547,754.00
2167700,1017.00
2167710,444.00
2167720,312.00
2167730,380.00
2167740,377.00
2167750,344.00
2167760,65.00
2167770,58.00
2167780,186.00
2167790,298.00
2167800,465.00
2167810,785.00
2167820,398.00
2167830,447.00
2167840,603.00
2167850,682.00
2167860,549.00
2167870,625.00
2167880,717.00
2167890,662.00
2167900,648.00
2167910,656.00
2167920,688.00
2167930,648.00
2167943,543.00
2167958,475.00
2167974,382.00
2167990,436.00
2168006,625.00
2168022,626.00
2168038,490.00
2168053,401.00
2168069,510.00
2168085,524.00
2168101,879.00
2168117,965.00
2168132,716.00
2168148,940.00
2168164,703.00
2168180,572.00
2168196,1022.00
2168212,764.00
2168227,606.00
2168243,116.00
2168259,576.00
2168275,792.00
2168291,944.00
2168306,734.00
2168322,640.00
2168338,477.00
2168354,962.00
2168370,440.00
2168386,634.00
2168401,672.00
2168417,630.00
2168433,774.00
2168449,573.00
2168465,606.00
2168480,615.00
2168496,665.00
2168512,613.00
2168528,633.00
2168544,471.00
2168560,717.00
2168575,663.00
2168591,585.00
2168607,428.00
2168623,533.00
2168639,452.00
2168654,465.00
2168670,795.00
2168686,1024.00
2168702,356.00
2168718,537.00
2168734,556.00
2168749,396.00
2168765,565.00
2168781,814.00
2168797,624.00
2168813,37.00
2168828,175.00
2168844,329.00
2168860,846.00
2168876,541.00
2168892,472.00
2168908,135.00
2168923,135.00
2168939,74.00
2168955,543.00
2168971,352.00
2168987,399.00
2169002,594.00
2169018,673.00
2169034,258.00
2169050,157.00
2169066,177.00
2169082,474.00
2169097,318.00
2169113,329.00
2169129,572.00
2169145,778.00
2169161,605.00
2169176,492.00
2169192,370.00
2169208,291.00
2169224,340.00
2169240,532.00
2169255,670.00
2169271,771.00
2169287,770.00
2169303,627.00
2169319,735.00
2169335,1024.00
2169350,530.00
2169366,653.00
2169382,814.00
2169398,451.00
2169414,13.00
2169429,456.00
2169445,796.00
2169461,661.00
2169477,437.00
2169493,483.00
2169509,738.00
2169524,654.00
2169540,888.00
2169556,715.00
2169572,614.00
2169588,493.00
2169603,613.00
2169619,556.00
2169635,425.00
2169651,889.00
2169667,829.00
2169683,473.00
2169698,415.00
2169714,264.00
2169730,238.00
2169746,224.00
2169762,484.00
2169777,547.00
2169793,694.00
2169809,739.00
2169825,828.00
2169841,1024.00
2169857,1024.00
2169872,1024.00
2169888,12.00
2169904,547.00
2169920,448.00
2169936,12.00
2169951,12.00
2169967,13.00
2169983,636.00
2169999,369.00
2170015,601.00
2170031,713.00
2170046,763.00
2170062,665.00
2170078,723.00
2170094,744.00
2170110,600.00
2170125,783.00
2170141,821.00
2170157,777.00
2170173,460.00
2170189,456.00
2170205,590.00
2170220,673.00
2170236,626.00
2170252,562.00
2170268,512.00
2170284,615.00
2170299,1024.00
2170315,1024.00
2170331,968.00
2170347,727.00
2170363,825.00
2170379,697.00
2170394,637.00
2170410,16.00
2170426,358.00
2170442,536.00
2170458,746.00
2170473,777.00
2170489,765.00
2170505,593.00
2170521,665.00
2170537,627.00
2170553,654.00
2170568,818.00
2170584,696.00
2170600,473.00
2170616,397.00
2170632,854.00
2170647,594.00
2170663,453.00
2170679,308.00
2170695,334.00
2170711,415.00
2170727,368.00
2170742,403.00
2170758,343.00
2170774,396.00
2170790,555.00
2170806,453.00
2170821,458.00
2170837,482.00
2170853,440.00
2170869,400.00
2170885,373.00
2170901,439.00
2170916,439.00
2170932,346.00
2170948,411.00
2170964,1004.00
2170980,292.00
2170995,499.00
2171011,728.00
2171027,342.00
2171043,483.00
2171059,384.00
2171074,482.00
2171089,500.00
2171106,533.00
2171122,573.00
2171138,447.00
2171154,438.00
2171169,602.00
2171185,457.00
2171201,390.00
2171216,469.00
2171233,547.00
2171248,456.00
2171264,382.00
2171280,700.00
2171296,763.00
2171312,175.00
2171328,390.00
2171343,312.00
2171359,536.00
2171375,528.00
2171391,580.00
2171407,458.00
2171422,463.00
2171438,304.00
2171454,360.00
2171470,420.00
2171486,363.00
2171501,509.00
2171517,680.00
2171533,592.00
2171549,521.00
2171565,526.00
2171581,528.00
2171596,698.00
2171612,1024.00
2171628,766.00
2171644,872.00
2171660,597.00
2171675,668.00
2171691,580.00
2171707,544.00
2171723,461.00
2171739,483.00
2171755,512.00
2171770,674.00
2171786,624.00
2171802,904.00
2171818,750.00
2171834,625.00
2171849,727.00
2171865,607.00
2171881,547.00
2171897,564.00
2171913,642.00
2171929,916.00
2171944,982.00
2171960,357.00
2171976,416.00
2171992,374.00
2172008,428.00
2172023,284.00
2172039,417.00
2172055,482.00
2172071,310.00
2172087,717.00
2172102,748.00
2172118,740.00
2172134,588.00
2172150,646.00
2172166,687.00
2172182,566.00
2172197,579.00
2172213,507.00
2172229,12.00
2172245,549.00
2172261,1024.00
2172276,677.00
2172292,250.00
2172308,273.00
2172324,519.00
2172340,290.00
2172356,330.00
2172371,168.00
2172387,369.00
2172403,324.00
2172419,217.00
2172435,355.00
2172450,437.00
2172466,223.00
2172482,389.00
2172498,367.00
2172514,168.00
2172530,101.00
2172545,231.00
2172561,440.00
2172577,188.00
2172593,765.00
2172609,366.00
2172624,289.00
2172640,77.00
2172655,324.00
2172672,468.00
2172688,748.00
2172702,597.00
2172719,533.00
2172735,633.00
2172751,1024.00
2172767,726.00
2172783,788.00
2172798,336.00
2172814,259.00
2172830,295.00
2172846,759.00
2172862,542.00
2172877,462.00
2172893,356.00
2172909,533.00
2172925,1005.00
2172941,295.00
2172957,381.00
2172972,414.00
2172988,483.00
2173003,629.00
2173020,426.00
2173036,649.00
2173051,513.00
2173067,699.00
2173083,713.00
2173099,468.00
2173115,996.00
2173131,818.00
2173146,420.00
2173162,554.00
2173178,641.00
2173194,477.00
2173210,244.00
2173225,314.00
2173240,780.00
2173257,869.00
2173273,569.00
2173288,855.00
2173304,832.00
2173320,589.00
2173336,509.00
2173352,412.00
2173368,507.00
2173384,768.00
2173399,710.00
2173415,246.00
2173431,974.00
2173447,448.00
2173463,705.00
2173478,733.00
2173494,557.00
2173510,471.00
2173526,590.00
2173542,613.00
2173556,478.00
2173573,1024.00
2173588,841.00
2173605,642.00
2173621,363.00
2173637,552.00
2173652,531.00
2173668,578.00
2173684,595.00
2173700,408.00
2173716,392.00
2173731,529.00
2173747,374.00
2173763,422.00
2173779,571.00
2173795,501.00
2173811,573.00
2173826,649.00
2173842,730.00
2173858,892.00
2173874,978.00
2173890,1024.00
2173905,1024.00
2173921,729.00
2173937,638.00
2173953,632.00
2173969,602.00
2173984,722.00
