4938,518.00
4949,535.00
4959,547.00
4969,569.00
4979,558.00
4989,554.00
4999,519.00
5009,473.00
5019,426.00
5029,361.00
5039,365.00
5049,341.00
5059,343.00
5069,333.00
5079,351.00
5089,370.00
5099,392.00
5109,440.00
5119,452.00
5129,428.00
5139,430.00
5149,409.00
5159,406.00
5169,414.00
5179,421.00
5189,437.00
5199,450.00
5209,440.00
5219,450.00
5229,470.00
5239,471.00
5249,472.00
5259,489.00
5269,498.00
5279,476.00
5289,485.00
5299,496.00
5309,528.00
5319,531.00
5329,557.00
5339,576.00
5349,558.00
5359,530.00
5369,511.00
5379,532.00
5389,528.00
5399,531.00
5409,518.00
5419,535.00
5429,655.00
5439,938.00
5449,1024.00
5459,657.00
5469,404.00
5479,414.00
5489,465.00
5499,562.00
5509,596.00
5519,607.00
5529,612.00
5539,612.00
5549,604.00
5559,609.00
5569,594.00
5579,638.00
5589,645.00
5599,666.00
5609,686.00
5619,710.00
5629,715.00
5639,726.00
5649,734.00
5659,732.00
5669,702.00
5679,664.00
5689,629.00
5699,602.00
5709,580.00
5719,580.00
5729,559.00
5739,555.00
5749,557.00
5759,552.00
5769,544.00
5779,555.00
5789,591.00
5799,604.00
5809,613.00
5819,606.00
5829,616.00
5839,595.00
5849,572.00
5859,548.00
5869,533.00
5879,524.00
5889,526.00
5899,526.00
5909,523.00
5919,523.00
5929,517.00
5939,519.00
5949,544.00
5959,549.00
5969,569.00
5979,570.00
5989,568.00
5999,570.00
6009,536.00
6019,493.00
6029,483.00
6039,480.00
6049,494.00
6059,505.00
6069,505.00
6079,577.00
6089,786.00
6099,1024.00
6109,889.00
6119,449.00
6129,362.00
6139,389.00
6149,502.00
6159,535.00
6169,512.00
6179,525.00
6189,547.00
6199,572.00
6209,581.00
6219,628.00
6229,665.00
6239,670.00
6249,677.00
6259,682.00
6269,709.00
6279,724.00
6289,740.00
6299,716.00
6309,692.00
6319,696.00
6329,641.00
6339,598.00
6349,564.00
6359,523.00
6369,496.00
6379,487.00
6389,483.00
6399,475.00
6409,451.00
6419,428.00
6429,399.00
6439,396.00
6449,399.00
6459,380.00
6469,381.00
6479,388.00
6489,410.00
6499,405.00
6509,404.00
6519,409.00
6529,416.00
6539,404.00
6549,403.00
6559,403.00
6569,384.00
6579,390.00
6589,414.00
6599,435.00
6609,468.00
6619,492.00
6629,501.00
6639,511.00
6649,514.00
6659,473.00
6669,423.00
6679,389.00
6689,367.00
6699,354.00
6709,357.00
6719,327.00
6729,403.00
6739,651.00
6749,988.00
6759,814.00
6769,329.00
6779,190.00
6789,264.00
6799,366.00
6809,380.00
6819,382.00
6829,401.00
6839,430.00
6849,426.00
6859,451.00
6869,464.00
6879,496.00
6889,507.00
6899,540.00
6909,547.00
6919,561.00
6929,561.00
6939,556.00
6949,576.00
6959,537.00
6969,525.00
6979,540.00
6989,536.00
6999,504.00
7009,487.00
7019,456.00
7029,406.00
7039,402.00
7049,404.00
7059,402.00
7069,429.00
7079,409.00
7089,429.00
7099,474.00
7109,544.00
7119,567.00
7129,591.00
7139,586.00
7149,558.00
7159,559.00
7169,580.00
7179,559.00
7189,534.00
7199,557.00
7209,533.00
7219,521.00
7229,535.00
7239,530.00
7249,543.00
7259,569.00
7269,594.00
7279,580.00
7289,557.00
7299,581.00
7309,555.00
7319,488.00
7329,481.00
7339,465.00
7349,489.00
7359,512.00
7369,487.00
7379,497.00
7389,561.00
7399,802.00
7409,960.00
7419,601.00
7429,321.00
7439,278.00
7449,348.00
7459,456.00
7469,505.00
7479,528.00
7489,545.00
7499,584.00
7509,584.00
7519,573.00
7529,576.00
7539,583.00
7549,615.00
7559,601.00
7569,605.00
7579,639.00
7589,657.00
7599,644.00
7609,644.00
7619,640.00
7629,589.00
7639,535.00
7649,475.00
7659,416.00
7669,376.00
7679,365.00
7689,376.00
7699,388.00
7709,389.00
7719,405.00
7729,405.00
7739,412.00
7749,392.00
7759,363.00
7769,387.00
7779,387.00
7789,389.00
7799,412.00
7809,428.00
7819,448.00
7829,462.00
7839,497.00
7849,498.00
7859,514.00
7869,517.00
7879,535.00
7889,556.00
7899,570.00
7909,574.00
7919,589.00
7929,593.00
7939,598.00
7949,582.00
7959,548.00
7969,544.00
7979,543.00
7989,544.00
7999,554.00
8009,548.00
8019,600.00
8029,750.00
8039,1024.00
8049,927.00
8059,501.00
8069,386.00
8079,388.00
8089,440.00
8099,553.00
8109,565.00
8119,579.00
8129,598.00
8139,610.00
8149,620.00
8159,632.00
8169,654.00
8179,667.00
8189,699.00
8199,688.00
8209,720.00
8219,735.00
8229,742.00
8239,753.00
8249,759.00
8259,751.00
8269,712.00
8279,667.00
8289,631.00
8299,608.00
8309,581.00
8319,582.00
8329,577.00
8339,583.00
8349,567.00
8359,569.00
8369,571.00
8379,579.00
8389,574.00
8399,581.00
8409,581.00
8419,594.00
8429,579.00
8439,570.00
8449,572.00
8459,553.00
8469,554.00
8479,530.00
8489,525.00
8499,524.00
8509,517.00
8519,517.00
8529,516.00
8539,507.00
8549,526.00
8559,535.00
8569,536.00
8579,528.00
8589,505.00
8599,505.00
8609,492.00
8619,502.00
8629,509.00
8639,511.00
8649,561.00
8659,662.00
8669,925.00
8679,1001.00
8689,552.00
8699,358.00
8709,374.00
8719,428.00
8729,529.00
8739,571.00
8749,568.00
8759,582.00
8769,566.00
8779,566.00
8789,585.00
8799,590.00
8809,608.00
8819,619.00
8829,622.00
8839,626.00
8849,650.00
8859,668.00
8869,657.00
8879,675.00
8889,653.00
8899,610.00
8909,554.00
8919,498.00
8929,466.00
8939,434.00
8949,424.00
8959,425.00
8969,435.00
8979,436.00
8989,447.00
8999,456.00
9009,447.00
9019,444.00
9029,442.00
9039,423.00
9049,429.00
9059,433.00
9069,433.00
9079,447.00
9089,440.00
9099,430.00
9109,404.00
9119,401.00
9129,397.00
9139,400.00
9149,415.00
9159,405.00
9169,417.00
9179,412.00
9189,413.00
9199,451.00
9209,450.00
9219,480.00
9229,496.00
9239,492.00
9249,500.00
9259,481.00
9269,449.00
9279,434.00
9289,442.00
9299,424.00
9309,436.00
9319,422.00
9329,463.00
9339,608.00
9349,934.00
9359,893.00
9369,386.00
9379,257.00
9389,303.00
9399,384.00
9409,484.00
9419,531.00
9429,544.00
9439,552.00
9449,570.00
9459,561.00
9469,585.00
9479,614.00
9489,643.00
9499,676.00
9509,676.00
9519,700.00
9529,724.00
9539,739.00
9549,745.00
9559,747.00
9569,738.00
9579,682.00
9589,610.00
9599,556.00
9609,522.00
9619,494.00
9629,489.00
9639,488.00
9649,488.00
9659,482.00
9669,476.00
9679,463.00
9689,469.00
9699,476.00
9709,486.00
9719,487.00
9729,488.00
9739,487.00
9749,488.00
9759,485.00
9769,475.00
9779,465.00
9789,471.00
9799,474.00
9809,482.00
9819,474.00
9829,478.00
9839,476.00
9849,464.00
9859,465.00
9869,473.00
9879,476.00
9889,471.00
9899,463.00
9909,470.00
9919,442.00
9929,464.00
9939,487.00
9949,490.00
9959,488.00
9969,496.00
9979,501.00
9989,505.00
9999,523.00
10009,495.00
10019,483.00
10029,495.00
10039,505.00
10049,524.00
10059,521.00
10069,591.00
10079,712.00
10089,973.00
10099,1024.00
10109,569.00
10119,346.00
10129,361.00
10139,435.00
10149,544.00
10159,558.00
10169,561.00
10179,569.00
10189,576.00
10199,584.00
10209,595.00
10219,615.00
10229,617.00
10239,637.00
10249,641.00
10259,643.00
10269,642.00
10279,660.00
10289,670.00
10299,656.00
10309,651.00
10319,612.00
10329,550.00
10339,469.00
10349,432.00
10359,409.00
10369,367.00
10379,353.00
10389,372.00
10399,384.00
10409,380.00
10419,378.00
10429,386.00
10439,385.00
10449,354.00
10459,339.00
10469,364.00
10479,368.00
10489,368.00
10499,373.00
10509,381.00
10519,374.00
10529,369.00
10539,361.00
10549,353.00
10559,356.00
10569,362.00
10579,357.00
10589,360.00
10599,352.00
10609,342.00
10619,348.00
10629,353.00
10639,367.00
10649,357.00
10659,365.00
10669,365.00
10679,375.00
10689,378.00
10699,392.00
10709,378.00
10719,349.00
10729,352.00
10739,345.00
10749,346.00
10759,336.00
10769,309.00
10779,304.00
10789,302.00
10799,297.00
10809,289.00
10819,290.00
10829,283.00
10839,292.00
10849,306.00
10859,307.00
10869,378.00
10879,544.00
10889,797.00
10899,645.00
10909,244.00
10919,189.00
10929,249.00
10939,337.00
10949,412.00
10959,415.00
10969,423.00
10979,441.00
10989,448.00
10999,466.00
11009,481.00
11019,508.00
11029,513.00
11039,538.00
11049,570.00
11059,600.00
11069,650.00
11079,681.00
11089,685.00
11099,696.00
11109,680.00
11119,652.00
11129,606.00
11139,579.00
11149,543.00
11159,525.00
11169,522.00
11179,518.00
11189,518.00
11199,502.00
11209,496.00
11219,487.00
11229,481.00
11239,472.00
11249,483.00
11259,480.00
11269,478.00
11279,487.00
11289,481.00
11299,469.00
11309,475.00
11319,493.00
11329,486.00
11339,495.00
11349,512.00
11359,516.00
11369,514.00
11379,526.00
11389,555.00
11399,567.00
11409,588.00
11419,579.00
11429,592.00
11439,580.00
11449,573.00
11459,582.00
11469,604.00
11479,639.00
11489,627.00
11499,614.00
11509,616.00
11519,600.00
11529,586.00
11539,609.00
11549,651.00
11559,652.00
11569,642.00
11579,648.00
11589,637.00
11599,616.00
11609,576.00
11619,570.00
11629,645.00
11639,894.00
11649,1014.00
11659,564.00
11669,302.00
11679,317.00
11689,362.00
11699,444.00
11709,453.00
11719,498.00
11729,475.00
11739,490.00
11749,540.00
11759,547.00
11769,578.00
11779,626.00
11789,669.00
11799,681.00
11809,663.00
11819,633.00
11829,675.00
11839,648.00
11849,643.00
11859,606.00
11869,532.00
11879,530.00
11889,488.00
11899,426.00
11909,389.00
11919,373.00
11929,336.00
11939,304.00
11949,288.00
11959,326.00
11969,315.00
11979,302.00
11989,337.00
11999,388.00
12009,370.00
12019,338.00
12029,328.00
12039,300.00
12049,298.00
12059,264.00
12069,283.00
12079,302.00
12089,361.00
12099,426.00
12109,436.00
12119,381.00
12129,420.00
12139,438.00
12149,475.00
12159,533.00
12169,622.00
12179,640.00
12189,753.00
12199,805.00
12209,849.00
12219,855.00
12229,833.00
12239,816.00
12249,799.00
12259,742.00
12269,715.00
12279,681.00
12289,664.00
12299,621.00
12309,600.00
12319,640.00
12329,831.00
12339,1024.00
12349,806.00
12359,401.00
12369,339.00
12379,349.00
12389,410.00
12399,456.00
12409,453.00
12419,435.00
12429,465.00
12439,432.00
12449,482.00
12459,504.00
12469,497.00
12479,489.00
12489,466.00
12499,526.00
12509,545.00
12519,550.00
12529,571.00
12539,591.00
12549,600.00
12559,562.00
12569,505.00
12579,464.00
12589,393.00
12599,390.00
12609,356.00
12619,337.00
12629,349.00
12639,348.00
12649,344.00
12659,426.00
12669,444.00
12679,456.00
12689,463.00
12699,462.00
12709,485.00
12719,528.00
12729,534.00
12739,566.00
12749,607.00
12759,632.00
12769,616.00
12779,584.00
12789,534.00
12799,565.00
12809,538.00
12819,538.00
12829,565.00
12839,590.00
12849,643.00
12859,681.00
12869,756.00
12879,762.00
12889,747.00
12899,776.00
12909,754.00
12919,711.00
12929,669.00
12939,657.00
12949,618.00
12959,614.00
12969,596.00
12979,630.00
12989,734.00
12999,1024.00
13009,1024.00
13019,768.00
13029,423.00
13039,433.00
13049,531.00
13059,601.00
13069,612.00
13079,629.00
13089,622.00
13099,633.00
13109,694.00
13119,738.00
13129,786.00
13139,818.00
13149,882.00
13159,884.00
13169,878.00
13179,894.00
13189,890.00
13199,900.00
13209,872.00
13219,865.00
13229,811.00
13239,763.00
13249,698.00
13259,657.00
13269,609.00
13279,590.00
13289,542.00
13299,517.00
13309,546.00
13319,546.00
13329,548.00
13339,521.00
13349,528.00
13359,494.00
13369,498.00
13379,477.00
13389,483.00
13399,498.00
13409,478.00
13419,474.00
13429,470.00
13439,441.00
13449,432.00
13459,418.00
13469,361.00
13479,329.00
13489,304.00
13499,276.00
13509,297.00
13519,336.00
13529,319.00
13539,308.00
13549,301.00
13559,277.00
13569,246.00
13579,204.00
13589,186.00
13599,206.00
13609,183.00
13619,164.00
13629,161.00
13639,187.00
13649,272.00
13659,566.00
13669,607.00
13679,130.00
13689,5.00
13699,15.00
13709,204.00
13719,307.00
13729,317.00
13739,313.00
13749,355.00
13759,420.00
13769,476.00
13779,526.00
13789,617.00
13799,633.00
13809,658.00
13819,661.00
13829,694.00
13839,736.00
13849,714.00
13859,720.00
13869,724.00
13879,726.00
13889,703.00
13899,652.00
13909,598.00
13919,535.00
13929,485.00
13939,454.00
13949,424.00
13959,394.00
13969,381.00
32049,46.00
315603,546.00
315613,561.00
315623,567.00
315633,589.00
315643,595.00
316214,505.00
316224,522.00
316234,530.00
316244,554.00
316254,548.00
316264,541.00
316274,536.00
316284,524.00
316294,541.00
316304,485.00
316314,428.00
316324,427.00
316334,370.00
316344,380.00
316354,355.00
316364,362.00
316374,385.00
316384,412.00
316394,482.00
316404,509.00
316415,542.00
316425,638.00
316435,802.00
316445,984.00
316455,681.00
316465,392.00
316475,353.00
316485,406.00
316495,509.00
316505,526.00
316515,490.00
316525,484.00
316535,504.00
316545,516.00
316555,509.00
316565,514.00
316575,518.00
316585,536.00
316595,556.00
316605,542.00
316615,583.00
316625,630.00
316635,651.00
316645,708.00
316655,736.00
316665,747.00
316675,748.00
316685,720.00
316695,668.00
316705,603.00
316715,576.00
316725,541.00
316735,517.00
316745,508.00
316755,502.00
316765,506.00
316775,517.00
316785,509.00
316795,508.00
316805,510.00
316815,501.00
316825,498.00
316835,483.00
316845,466.00
316855,465.00
316865,461.00
316875,462.00
316885,452.00
316895,432.00
316905,403.00
316915,361.00
316925,356.00
316935,350.00
316945,326.00
316955,328.00
316965,343.00
316975,380.00
316985,388.00
316995,406.00
317005,378.00
317015,396.00
317025,426.00
317035,441.00
317045,451.00
317055,449.00
317065,464.00
317075,468.00
317085,477.00
317095,477.00
317105,468.00
317115,511.00
317125,579.00
317135,798.00
317145,898.00
317155,556.00
317165,332.00
317175,295.00
317185,328.00
317195,417.00
317205,492.00
317215,513.00
317225,514.00
317235,536.00
317245,545.00
317255,556.00
317265,572.00
317275,596.00
317285,617.00
317295,642.00
317305,670.00
317315,713.00
317325,756.00
317335,792.00
317345,809.00
317355,837.00
317365,844.00
317375,820.00
317385,800.00
317395,765.00
317405,720.00
317415,690.00
317425,685.00
317435,673.00
317445,687.00
317455,696.00
317465,701.00
317475,729.00
317485,746.00
317495,754.00
317505,766.00
317515,809.00
317525,829.00
317535,817.00
317545,802.00
317555,741.00
317565,688.00
317575,656.00
317585,620.00
317595,590.00
317605,604.00
317615,632.00
317625,627.00
317635,637.00
317645,685.00
317655,750.00
317665,813.00
317675,850.00
317685,840.00
317695,809.00
317705,788.00
317715,773.00
317725,744.00
317735,669.00
317745,620.00
317755,590.00
317765,564.00
317775,552.00
317785,522.00
317795,520.00
317805,586.00
317815,753.00
317825,925.00
317835,595.00
317845,216.00
317855,134.00
317865,174.00
317875,253.00
317885,308.00
317895,288.00
317905,281.00
317915,261.00
317925,249.00
317935,244.00
317945,258.00
317955,290.00
317965,313.00
317975,337.00
317985,334.00
317995,345.00
318005,367.00
318015,387.00
318025,411.00
318035,426.00
318045,424.00
318055,409.00
318065,360.00
318075,290.00
318085,232.00
318095,206.00
318105,197.00
318115,210.00
318125,206.00
318135,223.00
318145,232.00
318155,250.00
318165,281.00
318175,312.00
318185,324.00
318195,343.00
318205,358.00
318215,387.00
318225,413.00
318235,459.00
318245,482.00
318255,516.00
318265,535.00
318275,570.00
318285,589.00
318295,605.00
318305,626.00
318315,652.00
318325,663.00
318335,673.00
318345,681.00
318355,677.00
318365,687.00
318375,675.00
318385,682.00
318395,672.00
318405,643.00
318415,628.00
318425,633.00
318435,618.00
318445,605.00
318455,584.00
318465,596.00
318475,664.00
318485,853.00
318495,1024.00
318505,904.00
318515,458.00
318525,375.00
318535,410.00
318545,500.00
318555,549.00
318565,558.00
318575,554.00
318585,552.00
318595,559.00
318605,549.00
318615,561.00
318625,567.00
318635,565.00
318645,571.00
318655,583.00
318665,601.00
318675,617.00
318685,645.00
318695,661.00
318705,678.00
318715,688.00
318725,664.00
318735,616.00
318745,566.00
318755,498.00
318765,460.00
318775,424.00
318785,415.00
318795,405.00
318805,386.00
318815,387.00
318825,397.00
318835,391.00
318845,382.00
318855,392.00
318865,399.00
318875,394.00
318885,389.00
318895,399.00
318905,401.00
318915,393.00
318925,393.00
318935,394.00
318945,388.00
318955,390.00
318965,382.00
318975,396.00
318985,392.00
318995,390.00
319005,391.00
319015,393.00
319025,390.00
319035,387.00
319045,396.00
319055,399.00
319065,393.00
319075,414.00
319085,428.00
319095,430.00
319105,439.00
319115,462.00
319125,477.00
319135,489.00
319145,486.00
319155,484.00
319165,488.00
319175,493.00
319185,480.00
319195,468.00
319205,465.00
319215,464.00
319225,468.00
319235,469.00
319245,464.00
319255,487.00
319265,592.00
319275,840.00
319285,992.00
319295,594.00
319305,318.00
319315,309.00
319325,365.00
319335,463.00
319345,496.00
319355,504.00
319365,520.00
319375,519.00
319385,528.00
319395,530.00
319405,543.00
319415,535.00
319425,537.00
319435,549.00
319445,562.00
319455,589.00
319465,607.00
319475,628.00
319485,641.00
319495,644.00
319505,649.00
319515,644.00
319525,594.00
319535,545.00
319545,502.00
319555,462.00
319565,440.00
319575,416.00
319585,414.00
319595,413.00
319605,416.00
319615,429.00
319625,430.00
319635,451.00
319645,469.00
319655,484.00
319665,486.00
319675,489.00
319685,494.00
319695,500.00
319705,509.00
319715,519.00
319725,532.00
319735,548.00
319745,567.00
319755,573.00
319765,579.00
319775,596.00
319785,590.00
319795,590.00
319805,588.00
319815,589.00
319825,592.00
319835,598.00
319845,605.00
319855,613.00
319865,627.00
319875,637.00
319885,637.00
319895,625.00
319905,624.00
319915,605.00
319925,594.00
319935,592.00
319945,573.00
319955,592.00
319965,591.00
319975,588.00
319985,597.00
319995,606.00
320005,609.00
320015,609.00
320025,626.00
320035,625.00
320045,615.00
320055,626.00
320065,610.00
320075,604.00
320085,583.00
320095,580.00
320105,583.00
320115,573.00
320125,559.00
320135,554.00
320145,603.00
320155,758.00
320165,1024.00
320175,984.00
320185,518.00
320195,375.00
320205,400.00
320215,464.00
320225,537.00
320235,537.00
320245,538.00
320255,552.00
320265,547.00
320275,562.00
320285,556.00
320295,559.00
320305,574.00
320315,578.00
320325,585.00
320335,598.00
320345,615.00
320355,629.00
320365,655.00
320375,687.00
320385,686.00
320395,679.00
320405,658.00
320415,608.00
320425,564.00
320435,501.00
320445,469.00
320455,440.00
320465,435.00
320475,418.00
320485,420.00
320495,417.00
320505,417.00
320515,425.00
320525,418.00
320535,425.00
320545,440.00
320555,445.00
320565,446.00
320575,450.00
320585,452.00
320595,453.00
320605,465.00
320615,461.00
320625,453.00
320635,453.00
320645,460.00
320655,469.00
320665,453.00
320675,463.00
320685,465.00
320695,470.00
320705,471.00
320715,449.00
320725,456.00
320735,466.00
320745,477.00
320755,473.00
320765,472.00
320775,474.00
320785,488.00
320795,483.00
320805,481.00
320815,480.00
320825,477.00
320835,480.00
320845,487.00
320855,488.00
320865,488.00
320875,493.00
320885,494.00
320895,489.00
320905,495.00
320915,504.00
320925,508.00
320935,506.00
320945,500.00
320955,512.00
320965,522.00
320975,546.00
320985,544.00
320995,535.00
321005,533.00
321015,531.00
321025,524.00
321035,509.00
321045,500.00
321055,496.00
321065,505.00
321075,501.00
321085,496.00
321095,564.00
321105,718.00
321115,986.00
321125,890.00
321135,436.00
321145,317.00
321155,346.00
321165,432.00
321175,504.00
321185,506.00
321195,524.00
321205,537.00
321215,545.00
321225,540.00
321235,552.00
321245,550.00
321255,572.00
321265,580.00
321275,592.00
321285,604.00
321295,618.00
321305,653.00
321315,677.00
321325,688.00
321335,694.00
321345,705.00
321355,687.00
321365,638.00
321375,582.00
321385,535.00
321395,493.00
321405,459.00
321415,458.00
321425,454.00
321435,442.00
321445,439.00
321455,438.00
321465,442.00
321475,440.00
321485,450.00
321495,461.00
321505,463.00
321515,471.00
321525,463.00
321535,480.00
321545,481.00
321555,482.00
321565,484.00
321575,492.00
321585,495.00
321595,499.00
321605,500.00
321615,489.00
321625,487.00
321635,483.00
321645,477.00
321655,476.00
321665,481.00
321675,486.00
321685,480.00
321695,488.00
321705,492.00
321715,498.00
321725,502.00
321735,511.00
321745,516.00
321755,509.00
321765,510.00
321775,499.00
321785,514.00
321795,512.00
321805,519.00
321815,521.00
321825,529.00
321835,526.00
321845,534.00
321855,528.00
321865,533.00
321875,549.00
321885,538.00
321895,536.00
321905,532.00
321915,540.00
321925,548.00
321935,568.00
321945,560.00
321955,558.00
321965,557.00
321975,543.00
321985,522.00
321995,514.00
322005,508.00
322015,512.00
322025,507.00
322035,500.00
322045,533.00
322055,622.00
322065,849.00
322075,1024.00
322085,693.00
322095,368.00
322105,340.00
322115,397.00
322125,486.00
322135,514.00
322145,526.00
322155,534.00
322165,544.00
322175,554.00
322185,560.00
322195,564.00
322205,562.00
322215,572.00
322225,580.00
322235,593.00
322245,598.00
322255,615.00
322265,637.00
322275,654.00
322285,681.00
322295,688.00
322305,696.00
322315,669.00
322325,619.00
322335,561.00
322345,512.00
322355,483.00
322365,470.00
322375,468.00
322385,465.00
322395,461.00
322405,460.00
322415,447.00
322425,452.00
322435,456.00
322445,469.00
322455,461.00
322465,464.00
322475,476.00
322485,482.00
322495,478.00
322505,476.00
322515,484.00
322525,490.00
322535,492.00
322545,498.00
322555,495.00
322565,505.00
322575,495.00
322585,492.00
322595,506.00
322605,506.00
322615,518.00
322625,514.00
322635,516.00
322645,519.00
322655,522.00
322665,534.00
322675,536.00
322685,520.00
322695,522.00
322705,525.00
322715,532.00
322725,540.00
322735,530.00
322745,525.00
322755,492.00
322765,485.00
322775,460.00
322785,458.00
322795,468.00
322805,461.00
322815,447.00
322825,435.00
322835,434.00
322845,434.00
322855,423.00
322865,410.00
322875,405.00
322885,433.00
322895,424.00
322905,403.00
322915,429.00
322925,426.00
322935,424.00
322945,415.00
322955,414.00
322965,480.00
322975,653.00
322985,921.00
322995,797.00
323005,368.00
323015,270.00
323025,372.00
323035,430.00
323045,496.00
323055,493.00
323065,484.00
323075,526.00
323085,574.00
323095,602.00
323105,618.00
323115,555.00
323125,540.00
323135,543.00
323145,543.00
323155,572.00
323165,613.00
323175,631.00
323185,672.00
323195,648.00
323205,667.00
323215,667.00
323225,670.00
323235,641.00
323245,628.00
323255,605.00
323265,554.00
323275,525.00
323285,514.00
323295,477.00
323305,475.00
323315,470.00
323325,484.00
323335,496.00
323345,522.00
323355,573.00
323365,579.00
323375,593.00
323385,571.00
323395,550.00
323405,547.00
323415,564.00
323425,578.00
323435,600.00
323445,579.00
323455,565.00
323465,588.00
323475,572.00
323485,557.00
323495,537.00
323505,546.00
323515,541.00
323525,546.00
323535,548.00
323545,581.00
323555,576.00
323565,572.00
323575,544.00
323585,501.00
323595,485.00
323605,482.00
323615,505.00
323625,547.00
323635,566.00
323645,588.00
323655,572.00
323665,549.00
323675,544.00
323685,510.00
323695,495.00
323705,457.00
323715,438.00
323725,417.00
323735,426.00
323745,424.00
323755,445.00
323765,520.00
323775,657.00
323785,925.00
323795,895.00
323805,449.00
323815,298.00
323825,316.00
323835,384.00
323845,461.00
323855,482.00
323865,495.00
323875,511.00
323885,524.00
323895,532.00
323905,516.00
323915,525.00
323925,518.00
323935,531.00
323945,538.00
323955,553.00
323965,571.00
323975,590.00
323985,610.00
323995,617.00
324005,629.00
324015,644.00
324025,630.00
324035,578.00
324045,509.00
324055,453.00
324065,390.00
324075,355.00
324085,329.00
324095,332.00
324105,339.00
324115,341.00
324125,351.00
324135,354.00
324145,346.00
324155,334.00
324165,339.00
324175,333.00
324185,353.00
324195,370.00
326730,355.00
326740,356.00
326750,353.00
326760,352.00
326770,368.00
326780,386.00
326790,406.00
326800,438.00
326810,448.00
326951,524.00
326961,802.00
326971,617.00
326981,165.00
326991,48.00
327001,89.00
327011,175.00
327021,220.00
327031,209.00
327041,223.00
327051,247.00
327061,269.00
327071,317.00
327081,349.00
327092,386.00
327102,434.00
327112,475.00
327122,496.00
327132,542.00
327142,581.00
327152,625.00
327162,665.00
327172,716.00
327182,758.00
327192,777.00
327202,756.00
327212,732.00
327222,661.00
327232,598.00
327242,553.00
327252,547.00
327262,495.00
327272,484.00
327282,465.00
327292,490.00
327302,480.00
327312,465.00
327322,411.00
327332,374.00
327342,331.00
327352,327.00
327362,363.00
327372,387.00
327382,341.00
327392,296.00
327402,303.00
327412,272.00
327422,256.00
327432,244.00
327442,229.00
327452,246.00
327462,197.00
327472,216.00
327482,206.00
327492,187.00
327502,198.00
327512,250.00
327522,283.00
327532,268.00
327542,241.00
327552,244.00
327562,249.00
327572,315.00
327582,356.00
327592,390.00
327602,362.00
327612,365.00
327622,462.00
327632,453.00
327642,343.00
327652,201.00
327662,67.00
327672,41.00
327682,168.00
327692,520.00
327702,692.00
327712,346.00
327722,186.00
327732,188.00
327742,314.00
327752,405.00
327762,466.00
327772,556.00
327782,553.00
327792,608.00
327802,643.00
327812,669.00
327822,691.00
327832,725.00
327842,726.00
327852,713.00
327862,715.00
327872,697.00
327882,737.00
327892,768.00
327902,860.00
327912,909.00
327922,850.00
327932,810.00
327942,706.00
327952,652.00
327962,638.00
327972,612.00
327982,588.00
327992,549.00
328002,495.00
328012,469.00
328022,489.00
328032,545.00
328042,573.00
328052,595.00
328062,616.00
328072,618.00
328082,617.00
328092,644.00
328102,651.00
328112,692.00
328122,692.00
328132,679.00
328142,701.00
328152,699.00
328162,698.00
328172,726.00
328182,759.00
328192,761.00
328202,772.00
328212,757.00
328222,737.00
328232,764.00
328242,782.00
328252,774.00
328262,819.00
328272,824.00
328282,819.00
328292,806.00
328302,813.00
328312,820.00
328322,826.00
328332,782.00
328342,775.00
328352,776.00
328362,776.00
328372,775.00
328382,765.00
328392,800.00
328402,905.00
328412,1024.00
328422,1024.00
328432,842.00
328442,558.00
328452,546.00
328462,580.00
328472,645.00
328482,641.00
328492,619.00
328502,614.00
328512,606.00
328522,589.00
328532,578.00
328542,552.00
328552,572.00
328562,582.00
328572,585.00
328582,610.00
328592,646.00
328602,665.00
328612,692.00
328622,734.00
328632,727.00
328642,760.00
328652,778.00
328662,756.00
328672,687.00
328682,651.00
328692,574.00
328702,554.00
328712,517.00
328722,510.00
328732,513.00
328742,505.00
328752,492.00
328762,486.00
328772,476.00
328782,464.00
328792,483.00
328802,513.00
328812,552.00
328822,571.00
328832,561.00
328842,580.00
328852,586.00
328862,598.00
328872,624.00
328882,620.00
328892,641.00
328902,638.00
328912,610.00
328922,543.00
328932,570.00
328942,556.00
328952,560.00
328962,560.00
328972,555.00
328982,573.00
328992,573.00
329002,543.00
329012,535.00
329022,565.00
329032,535.00
329042,559.00
329052,593.00
329062,579.00
329072,588.00
329082,565.00
329092,589.00
329102,641.00
329112,781.00
329122,1023.00
329132,921.00
329142,530.00
329152,391.00
329162,390.00
329172,460.00
329182,544.00
329192,531.00
329202,502.00
329212,498.00
329222,451.00
329232,484.00
329242,457.00
329252,434.00
329262,403.00
329272,391.00
329282,364.00
329292,385.00
329302,429.00
329312,464.00
329322,505.00
329332,559.00
329342,592.00
329352,596.00
329362,581.00
329372,565.00
329382,542.00
329392,520.00
329402,501.00
329412,507.00
329422,506.00
329432,500.00
329442,520.00
329452,537.00
329462,564.00
329472,564.00
329482,544.00
329492,547.00
329502,558.00
329512,550.00
329522,543.00
329532,570.00
329542,571.00
329552,547.00
329562,549.00
329572,545.00
329582,454.00
329592,315.00
329602,189.00
329612,92.00
329622,97.00
329632,62.00
329642,14.00
329652,18.00
329662,12.00
329672,10.00
329682,13.00
329692,9.00
329702,10.00
329712,14.00
329722,10.00
329732,10.00
329742,69.00
329752,121.00
329762,169.00
329772,341.00
329782,594.00
329792,693.00
329802,303.00
329812,72.00
329822,12.00
329832,61.00
329842,106.00
329852,166.00
329862,149.00
329872,148.00
329882,207.00
329892,245.00
329902,330.00
329912,368.00
329922,449.00
329932,546.00
329942,588.00
329952,617.00
329962,628.00
329972,637.00
329982,649.00
329992,674.00
330002,669.00
330012,644.00
330022,618.00
330032,556.00
330042,498.00
330052,444.00
330062,398.00
330072,381.00
330082,405.00
330092,379.00
330102,426.00
330112,460.00
330122,534.00
330132,651.00
330142,660.00
330152,713.00
330162,770.00
330172,800.00
330182,846.00
330192,857.00
330202,895.00
330212,924.00
330222,920.00
330232,936.00
330242,904.00
330252,874.00
330262,832.00
330272,769.00
330282,725.00
330292,749.00
330302,733.00
330312,751.00
330322,804.00
330332,847.00
330342,790.00
330352,762.00
330362,658.00
330372,605.00
330382,581.00
330392,560.00
330402,530.00
330412,460.00
330422,451.00
330432,493.00
330442,512.00
330452,490.00
330462,534.00
330472,562.00
330482,724.00
330492,1012.00
330502,906.00
330512,535.00
330522,388.00
330532,402.00
330542,473.00
330552,550.00
330562,574.00
330572,577.00
330582,555.00
330592,557.00
330602,574.00
330612,571.00
330622,573.00
330632,602.00
330642,600.00
330652,604.00
330662,610.00
330672,621.00
330682,663.00
330692,697.00
330702,728.00
330712,745.00
330722,709.00
330732,709.00
330742,631.00
330752,577.00
330762,547.00
330772,549.00
330782,504.00
330792,520.00
330802,482.00
330812,475.00
330822,501.00
330832,488.00
330842,488.00
330852,514.00
330862,494.00
330872,490.00
330882,442.00
330892,444.00
330902,465.00
330912,422.00
330922,380.00
330932,392.00
330942,432.00
330952,463.00
330962,418.00
330972,424.00
330982,439.00
330992,410.00
331002,484.00
331012,559.00
331022,595.00
331032,576.00
331042,562.00
331052,523.00
331062,508.00
331072,488.00
331082,461.00
331092,469.00
331102,482.00
331112,473.00
331122,442.00
331132,482.00
331142,577.00
331152,826.00
331162,948.00
331172,585.00
331182,330.00
331192,295.00
331202,349.00
331212,456.00
331222,512.00
331232,501.00
331242,509.00
331252,516.00
331262,518.00
331272,523.00
331282,521.00
331292,530.00
331302,534.00
331312,548.00
331322,572.00
331332,610.00
331342,630.00
331352,648.00
331362,654.00
331372,654.00
331382,656.00
331392,639.00
331402,608.00
331412,559.00
331422,513.00
331432,474.00
331442,451.00
331452,424.00
331462,426.00
331472,420.00
331482,442.00
331492,452.00
331502,473.00
331512,473.00
331522,487.00
331532,472.00
331542,485.00
331552,473.00
331562,480.00
331572,486.00
331582,498.00
331592,512.00
331602,506.00
331612,514.00
331622,516.00
331632,525.00
331642,541.00
331652,552.00
331662,554.00
331672,562.00
331682,561.00
331692,548.00
331702,537.00
331712,494.00
331722,470.00
331732,434.00
331742,436.00
331752,438.00
331762,445.00
331772,440.00
331782,505.00
331792,652.00
331802,885.00
331812,734.00
331822,374.00
331832,292.00
331842,326.00
331852,384.00
331862,495.00
331872,513.00
331882,530.00
331892,525.00
331902,538.00
331912,548.00
331922,568.00
331932,573.00
331942,588.00
331952,605.00
331962,616.00
331972,632.00
331982,667.00
331992,704.00
332002,733.00
332012,742.00
332022,756.00
332032,759.00
332042,745.00
332052,690.00
332062,649.00
332072,629.00
332082,596.00
332092,580.00
332102,580.00
332112,569.00
332122,576.00
332132,583.00
332142,585.00
332152,586.00
332162,616.00
332172,643.00
332182,660.00
332192,690.00
332202,715.00
332212,723.00
332222,728.00
332232,732.00
332242,740.00
332252,756.00
332262,766.00
332272,773.00
332282,770.00
332292,761.00
332302,758.00
332312,754.00
332322,717.00
332332,663.00
332342,624.00
332352,598.00
332362,589.00
332372,561.00
332382,542.00
332392,548.00
332402,626.00
332412,838.00
332422,1024.00
332432,675.00
332442,305.00
332452,254.00
332462,301.00
332472,387.00
332482,429.00
332492,423.00
332502,424.00
332512,428.00
332522,429.00
332532,428.00
332542,435.00
332552,453.00
332562,480.00
332572,494.00
332582,512.00
332592,508.00
332602,534.00
332612,542.00
332622,556.00
332632,562.00
332642,550.00
332652,529.00
332662,480.00
332672,425.00
332682,370.00
332692,338.00
332702,322.00
332712,308.00
332722,290.00
332732,283.00
332742,279.00
332752,277.00
332762,281.00
332772,283.00
332782,313.00
332792,313.00
332802,329.00
332812,339.00
332822,348.00
332832,363.00
332842,378.00
332852,394.00
332862,369.00
332872,362.00
332882,358.00
332892,382.00
332902,402.00
332912,409.00
332922,435.00
332932,460.00
332942,468.00
332952,476.00
332962,475.00
332972,475.00
332982,461.00
332992,440.00
333002,433.00
333012,432.00
333022,439.00
333032,427.00
333042,444.00
333052,456.00
333062,555.00
333072,765.00
333082,1018.00
333092,750.00
333102,314.00
333112,255.00
333122,304.00
333132,377.00
333142,448.00
333152,461.00
333162,462.00
333172,468.00
333182,462.00
333192,483.00
333202,493.00
333212,501.00
333222,497.00
333232,510.00
333242,528.00
333252,543.00
333262,586.00
333272,607.00
333282,630.00
333292,643.00
333302,649.00
333312,633.00
333322,586.00
333332,509.00
333342,460.00
333352,413.00
333362,393.00
333372,385.00
333382,366.00
333392,362.00
333402,368.00
333412,363.00
333422,379.00
333432,372.00
333442,378.00
333452,367.00
333462,389.00
333472,399.00
333482,414.00
333492,414.00
333502,425.00
333512,426.00
333522,442.00
333532,450.00
333542,461.00
333552,472.00
333562,476.00
333572,497.00
333582,509.00
333592,525.00
333602,564.00
333612,589.00
333622,614.00
333632,628.00
333642,636.00
333652,642.00
333662,646.00
333672,633.00
333682,626.00
333692,641.00
333702,648.00
333712,654.00
333722,649.00
333732,632.00
333742,680.00
333752,836.00
333762,1024.00
333772,1024.00
333782,698.00
333792,445.00
333802,507.00
333812,588.00
333822,693.00
333832,726.00
333842,729.00
333852,738.00
333862,739.00
333872,733.00
333882,744.00
333892,738.00
333902,734.00
333912,734.00
333922,738.00
333932,752.00
333942,780.00
333952,804.00
333962,838.00
333972,865.00
333982,876.00
333992,860.00
334002,820.00
334012,756.00
334022,674.00
334032,617.00
334042,582.00
334052,558.00
334062,550.00
334072,552.00
334082,550.00
334092,549.00
334102,536.00
334112,529.00
334122,534.00
334132,522.00
334142,528.00
334152,534.00
334162,533.00
334172,542.00
334182,542.00
334192,547.00
334202,537.00
334212,531.00
334222,529.00
334232,531.00
334242,530.00
334252,517.00
334262,514.00
334272,510.00
334282,501.00
334292,492.00
334302,498.00
334312,502.00
334322,496.00
334332,489.00
334342,489.00
334352,473.00
334362,458.00
334372,445.00
334382,415.00
334392,403.00
334402,354.00
334412,337.00
334422,290.00
334432,245.00
334442,235.00
334452,238.00
334462,232.00
334472,211.00
334482,183.00
334492,149.00
334502,123.00
334512,108.00
334522,86.00
334532,72.00
334542,61.00
334552,45.00
334562,30.00
334572,13.00
334582,97.00
334592,289.00
334602,597.00
334612,457.00
334622,13.00
334632,10.00
334642,14.00
334652,41.00
334662,176.00
334672,206.00
334682,230.00
334692,253.00
334702,298.00
334712,331.00
334722,354.00
334732,380.00
334742,400.00
334752,426.00
334762,460.00
334772,490.00
334782,540.00
334792,582.00
334802,633.00
334812,654.00
334822,677.00
334832,687.00
334842,672.00
334852,632.00
334862,594.00
334872,552.00
334882,522.00
334892,506.00
334902,500.00
334912,496.00
337302,544.00
337312,502.00
337322,505.00
337466,14.00
337477,14.00
337487,13.00
337497,12.00
337507,14.00
337517,14.00
337527,10.00
337537,12.00
337549,12.00
337560,154.00
337570,257.00
337580,213.00
337590,278.00
337600,283.00
337610,304.00
337620,307.00
337630,342.00
337640,349.00
337650,422.00
337660,493.00
337670,567.00
337680,609.00
337690,592.00
337700,637.00
337710,688.00
337720,718.00
337730,828.00
337740,817.00
337750,807.00
337760,894.00
337773,888.00
337784,801.00
337795,814.00
337805,828.00
337815,985.00
337825,1024.00
337835,615.00
337845,211.00
337855,175.00
337865,232.00
337875,456.00
337885,528.00
337895,510.00
337905,485.00
337915,340.00
337925,346.00
337935,317.00
337945,390.00
337955,428.00
337965,450.00
337975,449.00
337985,437.00
337995,493.00
338005,656.00
338015,617.00
338025,605.00
338035,686.00
338045,640.00
338055,569.00
338065,528.00
338075,437.00
338085,308.00
338095,258.00
338105,194.00
338115,141.00
338125,199.00
338135,258.00
338145,354.00
338155,417.00
338165,508.00
338175,566.00
338185,556.00
338195,544.00
338205,567.00
338215,487.00
338225,582.00
338235,525.00
338245,616.00
338255,630.00
338265,586.00
338275,656.00
338285,675.00
338295,561.00
338305,590.00
338315,562.00
338325,526.00
338335,578.00
338345,505.00
338355,446.00
338365,495.00
338375,430.00
338385,400.00
338395,432.00
338405,413.00
338415,473.00
338425,441.00
338435,512.00
338445,592.00
338455,645.00
338465,829.00
338475,1024.00
338485,1024.00
338495,1024.00
338505,785.00
338515,636.00
338525,712.00
338535,882.00
338545,903.00
338555,888.00
338565,848.00
338575,848.00
338585,834.00
338595,805.00
338605,848.00
338615,819.00
338625,829.00
338635,890.00
338645,848.00
338655,857.00
338665,878.00
338675,946.00
338685,927.00
338695,964.00
338705,952.00
338715,909.00
338725,826.00
338735,821.00
338745,750.00
338755,677.00
338765,678.00
338775,645.00
338785,670.00
338795,657.00
338805,648.00
338815,576.00
338825,640.00
338835,625.00
338845,628.00
338855,622.00
338865,633.00
338875,627.00
338885,608.00
338895,602.00
338905,653.00
338915,602.00
338925,598.00
338935,606.00
338945,593.00
338955,620.00
338965,569.00
338975,573.00
338985,558.00
338995,543.00
339005,595.00
339015,554.00
339025,567.00
339035,556.00
339045,485.00
339055,496.00
339065,442.00
339075,441.00
339085,442.00
339095,409.00
339105,401.00
339115,463.00
339125,571.00
339135,886.00
339145,1024.00
339155,648.00
339165,283.00
339175,302.00
339185,292.00
339195,475.00
339205,557.00
339215,581.00
339225,540.00
339235,586.00
339245,600.00
339255,546.00
339265,510.00
339275,601.00
339285,617.00
339295,584.00
339305,597.00
339315,625.00
339325,632.00
339335,601.00
339345,630.00
339355,628.00
339365,608.00
339375,556.00
339385,572.00
339395,677.00
339405,536.00
339415,457.00
339425,435.00
339435,446.00
339445,421.00
339455,424.00
339465,436.00
339475,432.00
339485,434.00
339495,399.00
339505,396.00
339515,393.00
339525,343.00
339535,284.00
339545,242.00
339555,172.00
339565,110.00
339575,65.00
339585,7.00
339595,6.00
339605,7.00
339615,7.00
339625,7.00
339635,6.00
339645,5.00
339655,7.00
339665,37.00
339675,148.00
339685,213.00
339695,110.00
339705,52.00
339715,98.00
339725,92.00
339735,140.00
339745,216.00
339755,296.00
339765,348.00
339775,332.00
339785,338.00
339795,406.00
339805,728.00
339815,879.00
339825,370.00
339835,63.00
339845,36.00
339855,60.00
339865,98.00
339875,21.00
339885,7.00
339895,5.00
339905,6.00
339915,7.00
339925,6.00
339935,5.00
339945,8.00
339955,7.00
339965,8.00
339975,8.00
339985,8.00
339995,8.00
340005,8.00
340015,98.00
340025,516.00
340035,652.00
340045,701.00
340055,672.00
340065,646.00
340075,648.00
340085,610.00
340095,727.00
340105,780.00
340115,864.00
340125,954.00
340135,951.00
340145,893.00
340155,858.00
340165,747.00
340175,708.00
340185,725.00
340195,840.00
340205,965.00
340215,973.00
340225,1024.00
340235,972.00
340245,970.00
340255,894.00
340265,972.00
340275,980.00
340285,936.00
340295,918.00
340305,924.00
340315,907.00
340325,943.00
340335,1024.00
340345,1024.00
340355,1024.00
340365,1024.00
340375,1024.00
340385,1024.00
340395,1024.00
340405,1024.00
340415,1024.00
340425,1024.00
340435,1024.00
340445,1024.00
340455,1024.00
340465,1024.00
340475,1024.00
340485,1024.00
340495,1024.00
340505,1024.00
340515,1024.00
340525,1024.00
340535,1024.00
340545,1024.00
340555,1024.00
340565,1024.00
340575,1024.00
340585,1024.00
340595,1024.00
340605,1024.00
340615,1024.00
340625,1024.00
340635,1024.00
340645,1024.00
340655,1024.00
340665,1024.00
340675,1024.00
340685,1024.00
340695,1024.00
340705,961.00
340715,771.00
340725,726.00
340735,613.00
340745,531.00
340755,447.00
340765,373.00
340775,309.00
340785,273.00
340795,242.00
340805,225.00
340815,165.00
340825,140.00
340835,139.00
340845,178.00
340855,146.00
340865,220.00
340875,157.00
340885,193.00
340895,166.00
340905,141.00
340915,111.00
340925,52.00
340935,28.00
340945,32.00
340955,51.00
340965,75.00
340975,84.00
340985,67.00
340995,27.00
341005,8.00
341015,8.00
341025,8.00
341035,12.00
341045,10.00
341055,9.00
341065,58.00
341075,137.00
341085,158.00
341095,89.00
341105,94.00
341115,161.00
341125,188.00
341135,261.00
341145,328.00
341155,397.00
341165,484.00
341175,733.00
341185,994.00
341195,783.00
341205,234.00
341215,150.00
341225,241.00
341235,339.00
341245,476.00
341255,485.00
341265,570.00
341275,502.00
341285,510.00
341295,461.00
341305,457.00
341315,444.00
341325,405.00
341335,418.00
341345,402.00
341355,440.00
341365,438.00
341375,517.00
341385,546.00
341395,559.00
341405,452.00
341415,489.00
341425,424.00
341435,314.00
341445,267.00
341455,176.00
341465,18.00
341475,8.00
341485,9.00
341495,7.00
341505,9.00
341515,7.00
341525,9.00
341535,9.00
341545,7.00
341555,10.00
341565,19.00
341575,230.00
341585,284.00
341595,351.00
341605,385.00
341615,531.00
341625,628.00
341635,598.00
341645,649.00
341655,658.00
341665,660.00
341675,689.00
341685,721.00
341695,756.00
341705,831.00
341715,969.00
341725,1024.00
341735,1024.00
341745,1024.00
341755,1024.00
341765,1024.00
341775,1024.00
341785,1024.00
341795,1024.00
341805,1024.00
341815,1024.00
341825,978.00
341835,933.00
341845,1009.00
341855,1024.00
341865,1024.00
341875,976.00
341885,1011.00
341895,1024.00
341905,1024.00
341915,1024.00
341925,1024.00
341935,589.00
341945,566.00
341955,630.00
341965,709.00
341975,679.00
341985,696.00
341995,684.00
342005,711.00
342015,771.00
342025,811.00
342035,832.00
342045,900.00
342055,841.00
342065,891.00
342075,797.00
342085,793.00
342095,770.00
342105,757.00
342115,818.00
342125,828.00
342135,810.00
342145,725.00
342155,733.00
342165,555.00
342175,493.00
342185,446.00
342195,390.00
342205,317.00
342215,326.00
342225,291.00
342235,330.00
342245,288.00
342255,351.00
342265,258.00
342275,183.00
342285,190.00
342295,246.00
342305,164.00
342315,240.00
342325,272.00
342335,294.00
342345,344.00
342355,327.00
342365,225.00
342375,229.00
342385,226.00
342395,189.00
342405,253.00
342415,272.00
342425,376.00
342435,355.00
342445,366.00
342455,327.00
342465,273.00
342475,249.00
342485,214.00
342495,200.00
342505,205.00
342515,180.00
342525,278.00
342535,247.00
342545,175.00
342555,127.00
342565,20.00
342575,52.00
342585,214.00
342595,397.00
342605,729.00
342615,742.00
342625,114.00
342635,18.00
342645,112.00
342655,222.00
342665,156.00
342675,262.00
342685,225.00
342695,154.00
342705,153.00
342715,125.00
342725,180.00
342735,181.00
342745,360.00
342755,468.00
342765,529.00
342775,654.00
342785,764.00
342795,879.00
342805,1024.00
342815,1024.00
342825,1024.00
342835,1024.00
342845,1024.00
342855,1024.00
342865,1024.00
342875,1024.00
342885,1024.00
342895,1024.00
342905,970.00
342915,691.00
342925,585.00
342935,428.00
342945,380.00
342955,506.00
342965,349.00
342975,450.00
342985,427.00
342995,481.00
343005,506.00
343015,534.00
343025,545.00
343035,698.00
343045,826.00
343055,802.00
343065,917.00
343075,713.00
343085,505.00
343095,375.00
343105,340.00
343115,339.00
343125,480.00
343135,590.00
343145,579.00
343155,705.00
343165,625.00
343175,680.00
343185,572.00
343195,428.00
343205,329.00
343215,134.00
343225,93.00
343235,136.00
343245,346.00
343255,463.00
343265,654.00
343275,1024.00
343285,1024.00
343295,1024.00
343305,465.00
343315,328.00
343325,283.00
343335,447.00
343345,451.00
343355,531.00
343365,622.00
343375,711.00
343385,828.00
343395,850.00
343405,849.00
343415,919.00
343425,934.00
343435,957.00
343445,1024.00
343455,1024.00
343465,1024.00
343475,1024.00
343485,1024.00
343495,1024.00
343505,1024.00
343515,1024.00
343525,1024.00
343535,1024.00
343545,1024.00
343555,1024.00
343565,1024.00
343575,1024.00
343585,1024.00
343595,1024.00
343605,1024.00
343615,1024.00
343625,1024.00
343635,1024.00
343645,1024.00
343655,1024.00
343665,1024.00
343675,1024.00
343685,1024.00
343695,1024.00
343705,1024.00
343715,1024.00
343725,1024.00
343735,1024.00
343745,1024.00
343755,1024.00
343765,1024.00
343775,1024.00
343785,1024.00
343795,1024.00
343805,1024.00
343815,781.00
343825,613.00
343835,550.00
343845,531.00
343855,505.00
343865,585.00
343875,820.00
343885,1004.00
343895,579.00
343905,198.00
343915,127.00
343925,98.00
343935,112.00
343945,190.00
343955,192.00
343965,173.00
343975,204.00
343985,213.00
343995,183.00
344005,153.00
344015,126.00
344025,96.00
344035,109.00
344045,112.00
344055,84.00
344065,90.00
344075,81.00
344085,115.00
344095,97.00
344105,92.00
344115,21.00
344125,10.00
344135,12.00
344145,9.00
344155,10.00
344165,9.00
344175,12.00
344185,9.00
344195,9.00
344205,12.00
344215,12.00
344225,10.00
344235,9.00
344245,12.00
344255,13.00
344265,9.00
344275,9.00
344285,12.00
344295,13.00
344305,12.00
344315,10.00
344325,157.00
344335,195.00
344345,204.00
344355,241.00
344365,248.00
344375,236.00
344385,242.00
344395,277.00
344405,232.00
344415,182.00
344425,178.00
344435,178.00
344445,144.00
344455,109.00
344465,122.00
344475,209.00
344485,345.00
344495,600.00
344505,450.00
344515,10.00
344525,13.00
344535,9.00
344545,12.00
344555,10.00
344565,13.00
344575,38.00
344585,144.00
344595,246.00
344605,334.00
344615,442.00
344625,497.00
344635,481.00
344645,507.00
344655,531.00
344665,568.00
344675,589.00
344685,601.00
344695,678.00
344705,724.00
344715,753.00
344725,758.00
344735,754.00
344745,688.00
344755,633.00
344765,536.00
344775,558.00
344785,607.00
344795,692.00
344805,741.00
344815,753.00
344825,775.00
344835,804.00
344845,763.00
344855,718.00
344865,730.00
344875,723.00
344885,684.00
344895,666.00
344905,580.00
344915,501.00
344925,463.00
344935,398.00
344945,472.00
344955,552.00
344965,494.00
344975,506.00
344985,531.00
344995,507.00
345005,471.00
345015,424.00
345025,317.00
345035,465.00
345045,461.00
345055,469.00
345065,682.00
345075,837.00
345085,1024.00
345095,1024.00
345105,1024.00
345115,810.00
345125,621.00
345135,698.00
345145,752.00
345155,649.00
345165,801.00
345175,663.00
345185,718.00
345195,769.00
345205,775.00
345215,790.00
345225,854.00
345235,913.00
345245,928.00
345255,1005.00
345265,1008.00
345275,1024.00
345285,1016.00
345295,1013.00
345305,993.00
345315,955.00
345325,912.00
345335,801.00
345345,736.00
345355,693.00
345365,637.00
345375,620.00
345385,586.00
345395,600.00
345405,564.00
345415,537.00
345425,536.00
345435,513.00
345445,589.00
345455,598.00
345465,609.00
345475,631.00
345485,625.00
345495,698.00
348555,506.00
348565,439.00
348575,361.00
348585,297.00
348595,247.00
348605,265.00
348615,276.00
348625,242.00
348635,132.00
348645,41.00
348655,10.00
348665,8.00
348675,8.00
348685,10.00
348695,8.00
348705,9.00
348715,9.00
348725,13.00
348735,12.00
348745,10.00
348755,12.00
348765,10.00
348775,12.00
348785,10.00
348795,9.00
348805,10.00
348815,10.00
348825,331.00
348835,477.00
348845,578.00
348855,676.00
348865,760.00
348875,768.00
348885,781.00
348895,822.00
348905,872.00
348915,908.00
348925,968.00
348935,1024.00
348945,1024.00
348955,1024.00
348965,1024.00
348975,1024.00
348985,1024.00
348995,1024.00
349005,1024.00
349015,1024.00
349025,1024.00
349370,489.00
349381,533.00
349391,577.00
349401,615.00
349411,625.00
349421,589.00
349431,559.00
349441,507.00
349451,558.00
349461,485.00
349471,486.00
349481,678.00
349491,955.00
349501,722.00
349511,236.00
349521,115.00
349531,146.00
349541,214.00
349551,254.00
349561,270.00
349571,283.00
349581,308.00
349591,337.00
349601,348.00
349611,377.00
349621,425.00
349631,446.00
349641,481.00
349651,499.00
349661,508.00
349671,529.00
349681,518.00
349691,542.00
349701,537.00
349711,544.00
349721,526.00
349731,493.00
349741,449.00
349751,409.00
349761,373.00
349771,360.00
349781,356.00
349791,363.00
349801,368.00
349811,377.00
349821,402.00
349831,414.00
349841,409.00
349851,425.00
349861,436.00
349871,463.00
349881,470.00
349891,447.00
349901,448.00
349911,415.00
349921,403.00
349931,388.00
349941,346.00
349951,338.00
349961,334.00
349971,328.00
349981,290.00
349991,222.00
350001,267.00
350011,488.00
350021,732.00
350031,440.00
350041,8.00
350051,9.00
350061,8.00
350071,9.00
350081,12.00
350091,10.00
350101,8.00
350111,7.00
350121,8.00
350131,10.00
350141,10.00
350151,10.00
350161,62.00
350171,285.00
350181,390.00
350191,456.00
350201,505.00
350211,535.00
350221,565.00
350231,572.00
350241,566.00
350251,560.00
350261,556.00
350271,510.00
350281,506.00
350291,523.00
350301,511.00
350311,535.00
350321,574.00
350331,600.00
350341,610.00
350351,629.00
350361,655.00
350371,693.00
350381,711.00
350391,726.00
350401,732.00
350411,710.00
350421,685.00
350431,640.00
350441,608.00
350451,579.00
350461,552.00
350471,534.00
350481,585.00
350491,638.00
350501,656.00
350511,620.00
350521,673.00
350531,907.00
350541,1024.00
350551,1024.00
350561,849.00
350571,534.00
350581,560.00
350591,629.00
350601,654.00
350611,638.00
350621,608.00
350631,595.00
350641,606.00
350651,615.00
350661,652.00
350671,712.00
350681,738.00
350691,785.00
350701,772.00
350711,802.00
350721,786.00
350731,771.00
350741,762.00
350751,770.00
350761,772.00
350771,785.00
350781,785.00
350791,773.00
350801,764.00
350811,756.00
350821,746.00
350831,730.00
350841,720.00
350851,718.00
350861,715.00
350871,712.00
350881,715.00
350891,720.00
350901,725.00
350911,734.00
350921,739.00
350931,733.00
350941,723.00
350951,697.00
350961,667.00
350971,614.00
350981,561.00
350991,533.00
351001,531.00
351011,516.00
351021,483.00
351031,465.00
351041,554.00
351051,843.00
351061,977.00
351071,561.00
351081,293.00
351091,315.00
351101,380.00
351111,446.00
351121,496.00
351131,474.00
351141,478.00
351151,457.00
351161,483.00
351171,484.00
351181,493.00
351191,523.00
351201,533.00
351211,535.00
351221,518.00
351231,545.00
351241,524.00
351251,521.00
351261,506.00
351271,495.00
351281,526.00
351291,520.00
351301,495.00
351311,424.00
351321,428.00
351331,453.00
351341,388.00
351351,422.00
351361,411.00
351371,387.00
351381,381.00
351391,352.00
351401,336.00
351411,351.00
351421,362.00
351431,451.00
351441,474.00
351451,487.00
351461,504.00
351471,484.00
351481,471.00
351491,454.00
351501,447.00
351511,435.00
351521,476.00
351531,457.00
351541,445.00
351551,541.00
351561,798.00
351571,1024.00
351581,786.00
351591,434.00
351601,416.00
351611,513.00
351621,607.00
351631,667.00
351641,681.00
351651,701.00
351661,729.00
351671,742.00
351681,761.00
351691,759.00
351701,786.00
351711,792.00
351721,816.00
351731,813.00
351741,809.00
351751,828.00
351761,823.00
351771,829.00
351781,820.00
351791,814.00
351801,806.00
351811,750.00
351821,728.00
351831,678.00
351841,641.00
351851,610.00
351861,601.00
351871,580.00
351881,580.00
351891,582.00
351901,596.00
351911,578.00
351921,553.00
351931,579.00
351941,590.00
351951,571.00
351961,552.00
351971,564.00
351981,557.00
351991,525.00
352001,520.00
352011,495.00
352021,484.00
352031,460.00
352041,430.00
352051,373.00
352061,370.00
352071,534.00
352081,818.00
352091,880.00
352101,450.00
352111,198.00
352121,224.00
352131,326.00
352141,394.00
352151,409.00
352161,422.00
352171,441.00
352181,450.00
352191,466.00
352201,483.00
352211,494.00
352221,523.00
352231,511.00
352241,525.00
352251,544.00
352261,564.00
352271,573.00
352281,584.00
352291,600.00
352301,605.00
352311,613.00
352321,590.00
352331,550.00
352341,507.00
352351,468.00
352361,452.00
352371,424.00
352381,400.00
352391,354.00
352401,320.00
352411,274.00
352421,238.00
352431,206.00
352441,158.00
352451,137.00
352461,185.00
352471,199.00
352481,230.00
352491,272.00
352501,319.00
352511,322.00
352521,321.00
352531,261.00
352541,164.00
352551,118.00
352561,94.00
352571,60.00
352581,50.00
352591,114.00
352601,339.00
352611,628.00
352621,585.00
352631,222.00
352641,149.00
352651,204.00
352661,362.00
352671,399.00
352681,442.00
352691,470.00
352701,489.00
352711,496.00
352721,492.00
352731,482.00
352741,471.00
352751,448.00
352761,480.00
352771,500.00
352781,529.00
352791,601.00
352801,651.00
352811,672.00
352821,752.00
352831,789.00
352841,808.00
352851,799.00
352861,797.00
352871,766.00
352881,761.00
352891,753.00
352901,723.00
352911,736.00
352921,736.00
352931,766.00
352941,764.00
352951,736.00
352961,688.00
352971,649.00
352981,644.00
352991,655.00
353001,658.00
353011,684.00
353021,672.00
353031,689.00
353041,657.00
353051,648.00
353061,648.00
353071,628.00
353081,653.00
353091,644.00
353101,643.00
353111,566.00
353121,534.00
353131,571.00
353141,892.00
353151,1024.00
353161,732.00
353171,381.00
353181,358.00
353191,439.00
353201,571.00
353211,632.00
353221,648.00
353231,654.00
353241,646.00
353251,638.00
353261,624.00
353271,597.00
353281,558.00
353291,489.00
353301,513.00
353311,519.00
353321,509.00
353331,509.00
353341,531.00
353351,526.00
353361,552.00
353371,561.00
353381,529.00
353391,502.00
353401,447.00
353411,375.00
353421,295.00
353431,257.00
353441,240.00
353451,240.00
353461,231.00
353471,242.00
353481,259.00
353491,314.00
353501,321.00
353511,318.00
353521,312.00
353531,258.00
353541,245.00
353551,242.00
353561,230.00
353571,338.00
353581,362.00
353591,327.00
353601,314.00
353611,293.00
353621,252.00
353631,196.00
353641,192.00
353651,244.00
353661,260.00
353671,278.00
353681,302.00
353691,480.00
353701,775.00
353711,936.00
353721,531.00
353731,283.00
353741,294.00
353751,379.00
353761,482.00
353771,509.00
353781,511.00
353791,532.00
353801,523.00
353811,537.00
353821,569.00
353831,576.00
353841,609.00
353851,618.00
353861,639.00
353871,682.00
353881,685.00
353891,684.00
353901,729.00
353911,756.00
353921,749.00
353931,744.00
353941,746.00
353951,728.00
353961,686.00
353971,668.00
353981,672.00
353991,642.00
354001,612.00
354011,608.00
354021,595.00
354031,555.00
354041,593.00
354051,577.00
354061,518.00
354071,530.00
354081,482.00
354091,481.00
354101,487.00
354111,476.00
354121,510.00
354131,541.00
354141,511.00
354151,536.00
354161,540.00
354171,545.00
354181,552.00
354191,538.00
354201,531.00
354211,513.00
354221,493.00
354231,461.00
354241,417.00
354251,504.00
354261,657.00
354271,938.00
354281,865.00
354291,406.00
354301,273.00
354311,351.00
354321,518.00
354331,667.00
354341,688.00
354351,698.00
354361,716.00
354371,711.00
354381,697.00
354391,677.00
354401,678.00
354411,687.00
354421,694.00
354431,709.00
354441,720.00
354451,715.00
354461,725.00
354471,714.00
354481,679.00
354491,662.00
354501,648.00
354511,616.00
354521,568.00
354531,543.00
354541,508.00
354551,519.00
354561,502.00
354571,523.00
354581,546.00
354591,511.00
354601,510.00
354611,507.00
354621,524.00
354631,526.00
354641,517.00
354651,504.00
354661,490.00
354671,477.00
354681,462.00
354691,461.00
354701,464.00
354711,470.00
354721,482.00
354731,487.00
354741,494.00
354751,505.00
354761,478.00
354771,464.00
354781,442.00
354791,450.00
354801,483.00
354811,532.00
354821,594.00
354831,780.00
354841,1024.00
354851,1024.00
354861,624.00
354871,381.00
354881,384.00
354891,450.00
354901,501.00
354911,508.00
354921,559.00
354931,521.00
354941,512.00
354951,531.00
354961,532.00
354971,557.00
354981,492.00
354991,520.00
355001,534.00
355011,565.00
355021,629.00
355031,701.00
355041,724.00
355051,727.00
355061,766.00
355071,751.00
355081,738.00
355091,713.00
355101,655.00
355111,602.00
355121,585.00
355131,545.00
355141,535.00
355151,500.00
355161,472.00
355171,525.00
355181,480.00
355191,474.00
355201,404.00
355211,356.00
355221,353.00
355231,331.00
355241,326.00
355251,332.00
355261,358.00
355271,356.00
355281,336.00
355291,341.00
355301,300.00
355311,322.00
355321,365.00
355331,444.00
355341,516.00
355351,553.00
355361,663.00
355371,675.00
355381,675.00
355391,689.00
355401,679.00
355411,682.00
355421,741.00
355431,735.00
355441,786.00
355451,913.00
355461,1024.00
355471,1024.00
355481,987.00
355491,559.00
355501,603.00
355511,693.00
355521,744.00
355531,736.00
355541,709.00
355551,643.00
355561,631.00
355571,615.00
355581,572.00
355591,550.00
355601,524.00
355611,572.00
355621,534.00
355631,537.00
355641,540.00
355651,546.00
355661,600.00
355671,582.00
355681,568.00
355691,579.00
355701,560.00
355711,523.00
355721,488.00
355731,442.00
355741,411.00
355751,415.00
355761,402.00
355771,401.00
355781,382.00
355791,398.00
355801,403.00
355811,394.00
355821,404.00
355831,416.00
355841,426.00
355851,437.00
355861,422.00
355871,392.00
355881,440.00
355891,421.00
355901,415.00
355911,424.00
355921,425.00
355931,439.00
355941,426.00
355951,435.00
355961,424.00
355971,409.00
355981,452.00
355991,465.00
356001,472.00
356011,473.00
356021,478.00
356031,458.00
356041,445.00
356051,450.00
356061,429.00
356071,408.00
356081,406.00
356091,417.00
356101,406.00
356111,449.00
356121,509.00
356131,693.00
356141,924.00
356151,682.00
356161,294.00
356171,206.00
356181,292.00
356191,377.00
356201,433.00
356211,461.00
356221,437.00
356231,417.00
356241,447.00
356251,445.00
356261,454.00
356271,449.00
356281,469.00
356291,474.00
356301,489.00
356311,493.00
356321,511.00
356331,561.00
356341,536.00
356351,516.00
356361,524.00
356371,517.00
356381,509.00
356391,505.00
356401,449.00
356411,389.00
356421,393.00
356431,362.00
356441,372.00
356451,366.00
356461,370.00
356471,385.00
356481,397.00
356491,398.00
356501,377.00
356511,365.00
356521,412.00
356531,412.00
356541,376.00
356551,380.00
356561,377.00
356571,390.00
356581,379.00
356591,423.00
356601,410.00
356611,469.00
356621,423.00
356631,446.00
356641,439.00
356651,432.00
356661,446.00
356671,449.00
