1024930,25,405,302
1024940,444,278
1024950,324,496,284
1024960,283,459,274
1024970,215,481,370
1024981,325,504,292
1024991,248,480,321
1025001,221,493,363
1025011,231,417,279
1025021,270,497,232
1025031,190,483,261
1025041,163,397,305
1025051,194,415,302
1025061,159,440,317
1025071,261,413,273
1025081,286,486,287
1025091,249,386,329
1025101,228,446,309
1025111,240,461,314
1025122,229,392,312
1025132,301,463,317
1025142,256,434,282
1025152,272,428,234
1025164,156,456,279
1025175,222,373,280
1025185,250,343,274
1025195,703,434,260
1025206,170,464,272
1025216,170,431,306
1025226,216,392,288
1025236,292,390,315
1025246,222,400,270
1025256,222,417,225
1025266,235,359,278
1025276,203,349,286
1025286,197,381,265
1025296,237,423,239
1025306,165,378,236
1025316,189,414,244
1025326,224,368,250
1025336,185,359,264
1025346,162,377,253
1025356,170,404,251
1025366,202,453,269
1025376,240,370,278
1025386,247,397,273
1025396,146,398,249
1025406,245,363,219
1025416,253,370,293
1025426,274,366,267
1025436,176,390,288
1025446,193,392,287
1025456,216,387,239
1025466,205,428,255
1025476,181,355,244
1025491,221,387,249
1025507,310,404,292
1025523,212,375,299
1025538,141,354,265
1025554,185,390,232
1025570,213,412,209
1025586,236,464,270
1025602,398,506,371
1025618,354,512,427
1025633,349,512,440
1025649,402,512,370
1025665,485,513,423
1025681,417,498,419
1025697,417,485,443
1025712,477,498,442
1025728,473,510,431
1025744,471,510,389
1025760,354,511,432
1025776,407,474,444
1025792,423,503,437
1025807,364,510,429
1025823,393,507,368
1025839,340,450,406
1025855,422,466,315
1025871,404,478,336
1025886,353,490,340
1025902,435,509,370
1025918,434,508,395
1025934,398,501,415
1025950,393,486,412
1025966,362,491,408
1025981,270,509,354
1025997,378,499,411
1026013,316,448,306
1026029,327,476,347
1026045,289,505,322
1026060,297,507,346
1026076,332,508,414
1026092,298,493,396
1026108,312,509,300
1026124,279,509,313
1026140,298,480,305
1026155,353,508,314
1026171,282,469,317
1026187,270,490,285
1026203,301,464,306
1026219,225,464,351
1026234,313,492,382
1026250,375,509,349
1026266,277,490,321
1026282,283,446,294
1026298,280,466,297
1026314,211,390,256
1026329,192,422,290
1026345,167,385,262
1026361,160,366,233
1026377,126,344,265
1026393,196,353,218
1026409,138,342,214
1026424,160,348,240
1026440,136,356,227
1026456,163,334,210
1026472,144,345,216
1026488,174,334,226
1026503,210,352,239
1026519,117,347,241
1026535,144,327,288
1026551,250,323,221
1026567,189,348,216
1026583,140,327,266
1026598,156,376,262
1026614,222,429,231
1026630,181,394,227
1026646,242,396,236
1026662,222,393,228
1026677,168,448,229
1026693,203,393,274
1026709,181,439,242
1026725,193,384,290
1026741,179,353,311
1026757,225,391,250
1026772,219,345,239
1026788,162,392,259
1026804,233,368,260
1026820,221,419,298
1026836,160,411,262
1026851,204,389,294
1026867,246,379,241
1026883,247,408,233
1026899,264,422,287
1026915,250,377,261
1026931,162,433,251
1026946,219,405,258
1026962,166,373,252
1026978,166,377,242
1026994,194,396,267
1027010,259,369,234
1027026,221,372,221
1027041,281,399,238
1027057,196,356,285
1027073,228,327,276
1027089,257,338,288
1027105,148,381,281
1027120,112,404,248
1027136,165,393,228
1027152,160,404,209
1027168,278,350,248
1027184,157,396,229
1027200,144,362,237
1027215,137,347,274
1027231,222,369,264
1027247,143,385,264
1027263,151,372,233
1027279,155,379,242
1027294,140,370,248
1027310,170,363,253
1027326,151,402,286
1027342,161,418,259
1027358,194,363,235
1027374,542,358,236
1027389,156,367,238
1027405,310,360,254
1027421,168,351,219
1027437,192,372,259
1027453,184,394,238
1027468,161,358,230
1027484,179,342,268
1027500,168,375,255
1027516,141,377,206
1027532,174,380,222
1027548,183,367,254
1027563,237,370,278
1027579,371,433,249
1027595,213,351,254
1027611,151,418,230
1027627,190,405,207
1027642,180,376,218
1027658,257,397,258
1027674,172,384,238
1027690,222,379,238
1027706,231,480,288
1027722,273,465,305
1027737,287,459,317
1027753,309,426,311
1027769,177,481,392
1027785,342,478,363
1027801,234,463,324
1027816,381,476,310
1027832,305,508,392
1027848,408,508,390
1027864,384,511,335
1027880,324,510,365
1027896,356,411,396
1027911,349,493,380
1027927,325,456,430
1027943,320,485,337
1027959,328,509,298
1027975,392,510,292
1027991,356,507,328
1028006,440,499,378
1028022,375,498,389
1028038,400,510,416
1028054,361,500,351
1028070,366,507,346
1028085,284,509,356
1028101,296,499,354
1028117,347,495,392
1028133,374,462,357
1028149,361,505,333
1028165,375,504,357
1028180,373,434,354
1028196,370,502,380
1028212,375,510,384
1028228,346,497,346
1028244,334,509,341
1028259,384,496,403
1028275,368,481,389
1028291,289,494,306
1028307,291,498,338
1028323,269,505,327
1028339,260,499,325
1028354,220,507,298
1028370,262,483,286
1028386,212,404,227
1028402,100,293,208
1028417,90,295,250
1028433,141,324,257
1028449,107,275,207
1028464,91,272,207
1028481,156,294,261
1028497,128,282,224
1028512,189,382,227
1028528,150,381,248
1028544,204,436,300
1028560,301,493,322
1028576,300,484,317
1028592,253,452,336
1028607,255,484,295
1028623,242,464,275
1028639,302,488,321
1028655,334,510,377
1028671,322,487,364
1028686,289,506,346
1028702,300,480,379
1028718,281,506,383
1028734,387,511,399
1028750,358,489,438
1028766,384,479,290
1028781,311,473,313
1028797,251,507,324
1028813,362,505,352
1028829,285,427,346
1028845,336,501,335
1028860,257,506,266
1028876,294,493,348
1028892,306,456,422
1028908,273,459,409
1028924,298,504,346
1028940,305,488,281
1028955,334,509,316
1028971,249,450,376
1028987,305,389,357
1029003,254,430,339
1029019,352,470,318
1029034,248,498,290
1029050,274,422,316
1029066,201,411,383
1029082,230,442,369
1029098,292,410,288
1029114,201,385,301
1029129,240,423,241
1029145,207,377,250
1029161,182,404,320
1029177,236,420,307
1029193,202,399,246
1029209,179,379,266
1029224,184,445,282
1029240,220,432,267
1029256,274,397,248
1029272,210,403,289
1029288,277,369,304
1029303,253,362,260
1029319,194,386,253
1029335,132,392,307
1029351,203,375,289
1029367,236,463,267
1029383,200,455,258
1029398,385,410,269
1029414,202,408,340
1029430,304,497,367
1029446,299,442,294
1029462,364,460,313
1029477,284,451,334
1029493,338,488,345
1029509,361,428,342
1029525,292,493,362
1029541,365,509,351
1029557,242,486,375
1029572,320,504,405
1029588,359,481,403
1029604,430,508,440
1029620,347,491,438
1029636,412,510,427
1029651,387,496,457
1029667,419,510,427
1029683,433,510,381
1029699,427,505,420
1029715,402,509,460
1029731,482,511,412
1029746,394,511,482
1029762,497,513,483
1029778,419,512,462
1029794,468,509,447
1029810,455,511,459
1029826,472,512,491
1029841,507,511,433
1029857,499,509,464
1029873,480,512,490
1029889,491,513,486
1029905,406,513,427
1029920,465,508,433
1029936,462,496,468
1029952,429,510,484
1029968,389,488,503
1029984,491,509,465
1030000,502,507,448
1030015,510,512,442
1030031,451,511,473
1030047,489,511,455
1030063,500,512,440
1030079,494,513,503
1030094,497,511,497
1030110,463,512,462
1030126,498,507,453
1030142,363,506,411
1030158,478,510,417
1030174,391,512,432
1030189,388,510,441
1030205,386,493,350
1030221,355,507,390
1030237,373,510,393
1030253,383,511,410
1030268,400,505,399
1030284,383,510,344
1030300,351,510,358
1030316,377,512,389
1030332,383,502,376
1030348,324,462,334
1030363,269,446,289
1030379,336,469,330
1030395,270,398,319
1030411,273,484,285
1030427,292,492,234
1030442,290,439,303
1030458,275,499,294
1030474,216,487,307
1030490,258,491,336
1030506,295,509,378
1030522,307,488,354
1030537,257,500,332
1030553,267,494,319
1030569,306,474,317
1030585,220,402,344
1030601,203,381,306
1030616,237,375,258
1030632,180,378,272
1030648,344,417,277
1030664,203,436,264
1030680,196,417,254
1030696,204,405,256
1030711,207,378,276
1030727,201,382,278
1030743,212,386,267
1030759,274,440,255
1030775,128,354,258
1030790,178,354,272
1030806,200,346,276
1030822,334,367,292
1030838,128,369,269
1030854,204,362,256
1030870,205,416,234
1030884,85,342,266
1030901,234,400,280
1030917,274,405,311
1030933,238,381,283
1030949,318,374,306
1030964,217,394,287
1030980,156,399,258
1030996,185,386,245
1031012,222,383,249
1031028,232,373,265
1031044,179,406,295
1031059,208,371,308
1031075,166,447,277
1031091,255,421,283
1031107,208,382,300
1031123,175,358,326
1031138,208,397,225
1031154,169,394,240
1031170,153,450,327
1031186,220,451,374
1031202,311,442,303
1031218,280,419,267
1031233,317,456,315
1031249,290,495,313
1031265,309,457,318
1031281,328,503,361
1031297,431,511,404
1031312,379,512,403
1031328,438,513,429
1031344,375,482,428
1031360,449,507,430
1031376,469,511,430
1031392,478,507,418
1031407,491,502,407
1031423,504,508,454
1031439,499,509,476
1031455,486,509,505
1031471,465,505,454
1031486,490,512,455
1031502,510,512,467
1031518,513,509,467
1031534,488,513,452
1031550,504,508,492
1031566,478,511,508
1031581,483,512,420
1031597,456,512,416
1031613,486,511,415
1031629,471,486,407
1031645,435,476,398
1031660,416,507,411
1031676,449,510,427
1031692,386,506,420
1031708,442,510,421
1031724,478,511,443
1031740,403,512,388
1031755,406,512,390
1031771,389,510,404
1031787,461,465,424
1031803,448,498,471
1031819,490,505,481
1031835,494,510,402
1031850,482,511,459
1031866,508,511,451
1031882,459,488,412
1031898,476,491,391
1031914,468,495,451
1031929,451,510,449
1031945,494,506,489
1031961,469,458,444
1031977,507,504,451
1031993,494,504,441
1032009,495,470,415
1032024,470,466,417
1032040,487,506,474
1032056,489,512,459
1032072,478,510,454
1032088,478,511,429
1032103,467,509,436
1032119,413,498,421
1032135,490,487,405
1032151,508,503,475
1032167,488,490,437
1032183,424,509,486
1032198,470,494,409
1032214,490,497,435
1032230,485,510,431
1032246,477,486,409
1032262,454,503,409
1032278,485,495,432
1032293,431,510,439
1032309,386,511,361
1032325,306,510,333
1032341,296,508,423
1032357,337,511,383
1032372,378,454,355
1032388,391,480,364
1032404,277,456,340
1032420,321,504,380
1032436,357,464,379
1032452,292,403,351
1032467,302,396,306
1032483,345,496,322
1032499,324,440,321
1032515,283,455,311
1032531,276,357,325
1032547,316,378,344
1032562,272,398,258
1032578,270,406,241
1032594,245,491,292
1032610,139,409,351
1032626,294,437,309
1032641,266,479,325
1032657,236,377,311
1032673,354,341,263
1032689,255,348,256
1032705,190,449,349
1032721,232,371,341
1032736,326,409,267
1032752,350,452,279
1032768,297,436,273
1032784,241,468,356
1032800,287,471,350
1032815,412,506,310
1032831,349,510,402
1032847,350,468,425
1032863,394,507,430
1032879,412,511,376
1032895,432,508,347
1032910,383,510,337
1032926,408,495,464
1032942,449,510,447
1032958,413,511,428
1032974,432,506,405
1032990,380,492,370
1033005,426,509,408
1033021,442,511,419
1033037,425,512,365
1033053,424,512,384
1033069,466,508,390
1033084,485,495,473
1033100,421,510,391
1033116,438,511,366
1033132,420,510,421
1033148,470,512,376
1033164,392,512,364
1033179,437,510,413
1033195,446,512,396
1033211,398,511,431
1033227,454,512,457
1033243,466,513,395
1033259,490,509,407
1033274,493,512,473
1033290,482,510,449
1033306,483,497,478
1033322,479,509,488
1033338,432,506,495
1033353,469,511,485
1033369,465,512,437
1033385,393,510,392
1033401,397,511,429
1033417,387,512,476
1033433,483,509,416
1033448,471,503,425
1033464,483,506,434
1033480,448,465,388
1033496,431,501,423
1033512,400,511,431
1033527,411,512,386
1033543,451,506,417
1033559,452,487,432
1033575,413,509,438
1033591,409,506,431
1033607,437,510,401
1033622,437,497,351
1033638,390,508,381
1033654,430,504,384
1033670,439,510,392
1033686,434,497,433
1033702,443,509,377
1033717,414,493,366
1033733,442,469,389
1033749,403,453,415
1033765,332,447,392
1033781,325,469,383
1033796,267,495,401
1033812,331,497,318
1033828,355,460,375
1033844,215,505,336
1033860,217,420,322
1033876,289,455,336
1033891,294,375,331
1033907,332,487,351
1033923,266,431,359
1033939,285,502,371
1033955,298,485,393
1033970,296,509,417
1033986,346,501,307
1034002,329,455,303
1034018,304,503,357
1034034,329,502,370
1034050,280,472,345
1034065,365,486,284
1034081,307,450,357
1034097,316,474,322
1109476,,496
1110361,
1110372,2,367,176
1110382,152,348,233
1110392,205,312,214
1110406,163,304,196
1110416,156,338,217
1110426,175,339,181
1110436,172,304,240
1110446,110,334,234
1110456,167,339,217
1110466,194,408,261
1110476,180,449,334
1110486,191,408,262
1110496,175,316,218
1110506,167,353,222
1110516,175,364,217
1110526,182,345,195
1110536,213,319,236
1110546,244,383,205
1110556,253,353,234
1110566,249,392,260
1110576,220,438,288
1110586,241,438,277
1110596,198,395,189
1110606,144,385,247
1110616,158,355,221
1110626,219,348,246
1110636,311,481,235
1110646,387,457,384
1110656,329,506,309
1110666,222,374,320
1110676,286,412,238
1110686,262,421,250
1110696,190,384,256
1110706,225,369,257
1110716,220,400,218
1110726,188,370,233
1110736,196,313,233
1110746,151,306,221
1110756,156,334,231
1110766,141,300,257
1110776,134,317,220
1110786,140,322,239
1110796,176,294,204
1110806,187,342,217
1110816,146,339,218
1110826,161,347,197
1110836,233,334,193
1110846,146,383,221
1110856,194,330,229
1110866,186,344,269
1110876,172,351,190
1110886,251,364,228
1110896,221,352,247
1110906,232,400,225
1110922,175,345,240
1110938,176,350,194
1110953,190,379,219
1110969,173,331,283
1110985,196,350,171
1111001,270,326,163
1111017,227,435,273
1111033,214,441,274
1111048,321,500,345
1111064,350,421,332
1111080,372,455,357
1111096,369,496,404
1111112,423,506,396
1111127,490,506,452
1111143,512,516,480
1111159,497,520,505
1111175,475,512,434
1111191,502,512,478
1111207,469,519,433
1111222,481,497,443
1111238,500,506,439
1111254,497,511,458
1111270,414,508,420
1111286,451,505,443
1111301,454,499,419
1111317,393,490,423
1111333,447,498,313
1111349,481,510,341
1111365,499,499,364
1111381,506,513,454
1111396,456,508,364
1111412,337,513,342
1111428,317,515,362
1111444,260,425,359
1111460,192,367,274
1111475,189,319,235
1111491,146,327,196
1111507,187,366,197
1111523,208,322,223
1111539,244,362,220
1111555,200,357,205
1111570,180,350,219
1111586,246,446,288
1111602,235,426,219
1111618,323,430,235
1111634,430,459,294
1111649,339,499,294
1111665,437,464,361
1111681,410,498,426
1111697,331,493,375
1111713,396,479,407
1111729,327,466,331
1111744,397,491,378
1111760,423,469,326
1111776,359,495,376
1111792,412,499,404
1111808,477,521,407
1111823,419,511,445
1111839,329,481,340
1111855,248,407,273
1111871,236,485,229
1111887,270,354,196
1111903,238,380,263
1111918,241,374,295
1111934,316,365,268
1111950,249,394,279
1111966,268,396,234
1111982,338,481,269
1111998,336,488,326
1112013,316,496,298
1112029,323,438,308
1112045,200,427,258
1112061,227,408,246
1112077,282,433,233
1112092,175,376,240
1112108,176,287,235
1112124,234,372,236
1112140,199,373,184
1112156,227,395,195
1112172,230,402,228
1112187,158,359,291
1112203,339,450,346
1112219,289,412,282
1112235,307,472,372
1112251,418,506,346
1112266,426,517,329
1112282,482,502,453
1112298,471,510,439
1112314,498,511,455
1112330,503,509,438
1112346,491,513,461
1112361,434,510,487
1112377,461,501,404
1112393,508,506,374
1112409,410,504,388
1112425,431,485,334
1112440,342,482,345
1112456,401,444,264
1112472,321,385,309
1112488,328,432,273
1112504,369,444,237
1112520,292,481,440
1112535,337,501,273
1112551,233,430,244
1112567,290,421,238
1112583,316,406,192
1112599,306,426,273
1112614,229,401,246
1112630,194,357,277
1112646,239,398,297
1112662,231,390,217
1112678,256,375,247
1112694,225,461,234
1112709,175,383,304
1112725,196,434,236
1112741,166,382,210
1112757,214,403,245
1112773,181,381,273
1112788,179,390,247
1112804,192,398,227
1112820,236,389,273
1112836,253,403,217
1112852,253,413,308
1112868,325,456,258
1112883,369,481,309
1112899,279,499,335
1112915,338,457,339
1112931,289,432,340
1112947,367,489,379
1112962,385,480,365
1112978,336,466,368
1112994,427,503,398
1113010,332,456,369
1113026,306,398,226
1113042,245,403,245
1113057,262,398,211
1113073,172,371,221
1113089,188,370,227
1113105,271,369,217
1113121,196,364,231
1113137,153,377,197
1113152,215,358,177
1113168,173,373,227
1113184,250,406,269
1113200,223,434,273
1113216,237,405,280
1113231,297,407,265
1113247,280,419,284
1113263,192,404,208
1113279,207,337,210
1113295,176,334,218
1113311,172,370,247
1113326,167,351,227
1113342,183,371,216
1113358,219,377,226
1113374,209,346,250
1113390,200,394,209
1113405,238,479,273
1113421,312,514,341
1113437,393,479,286
1113453,424,487,397
1113676,479,508,393
1113686,470,509,422
1113697,451,493,427
1113707,426,501,414
1113764,495,517,467
1113774,520,490,506
1113784,494,460,512
1113794,511,514,475
1113804,467,500,398
1113814,428,517,441
1113824,454,517,374
1113834,357,490,372
1113844,362,418,301
1113854,333,423,282
1113864,288,422,256
1113874,259,378,259
1113884,290,445,219
1113894,247,354,225
1113904,211,326,207
1113914,199,365,216
1113924,246,373,221
1113934,234,333,262
1113944,238,343,220
1113954,259,350,209
1113964,173,388,187
1113974,184,327,223
1113984,110,313,212
1113994,109,312,195
1114004,150,312,252
1114014,167,349,223
1114024,234,368,245
1114034,168,345,238
1114044,251,388,221
1114054,197,460,235
1114064,282,369,268
1114074,280,398,219
1114084,266,434,230
1114094,281,385,249
1114104,288,446,282
1114114,317,427,344
1114125,377,466,303
1114135,352,382,357
1114145,315,471,283
1114155,394,495,343
1114166,358,498,350
1114181,417,505,322
1114279,448,499,394
1114289,376,515,384
1114299,418,394,305
1114309,379,431,293
1114319,270,443,328
1114329,312,460,299
1114339,307,415,336
1114349,198,419,258
1114359,236,392,234
1114369,248,375,271
1114379,213,368,210
1114394,316,392,211
1114404,208,344,227
1114414,219,425,247
1114424,250,415,170
1114434,229,396,257
1114450,256,465,276
1114465,221,431,257
1114481,260,448,252
1114497,226,416,293
1114513,249,382,228
1114529,233,371,239
1114544,201,412,264
1114560,289,436,250
1114576,172,375,263
1114592,220,357,290
1114608,186,369,254
1114624,245,366,265
1114639,224,453,256
1114655,206,468,281
1114671,360,504,351
1114687,447,511,336
1114703,437,443,342
1114718,381,477,416
1114734,455,508,466
1114750,465,510,394
1114766,441,506,384
1114782,386,516,354
1114798,426,505,288
1114813,424,487,390
1114829,359,475,361
1114845,381,467,351
1114861,309,408,286
1114877,285,412,212
1114892,334,397,231
1114908,211,399,278
1114924,220,388,212
1114940,253,418,265
1114956,220,382,264
1114972,238,393,251
1114987,196,395,193
1115003,258,383,174
1115019,175,402,217
1115035,166,383,211
1115051,228,428,212
1115067,232,398,246
1115082,165,339,220
1115098,162,362,255
1115114,171,387,207
1115130,234,388,235
1115146,213,354,250
1115161,237,342,243
1115177,195,345,215
1115193,393,356,195
1115209,153,382,225
1115225,226,388,245
1115241,208,394,248
1115256,286,397,273
1115272,327,451,279
1115288,380,418,306
1115304,385,489,349
1115320,331,483,405
1115335,404,506,333
1115351,437,509,383
1115367,453,522,371
1115383,473,504,380
1115399,372,529,447
1115415,433,494,346
1115430,348,416,330
1115446,223,360,291
1115462,183,385,243
1115478,315,420,302
1115494,371,463,387
1115509,393,490,385
1115525,315,428,308
1115541,213,380,254
1115557,275,412,240
1115573,261,396,251
1115589,247,379,244
1115604,282,490,306
1115620,282,446,329
1115636,254,458,314
1115652,242,429,317
1115668,285,379,282
1115683,157,322,184
1115699,160,301,190
1115715,189,347,211
1115731,157,333,206
1115747,148,374,208
1115763,202,384,231
1115778,269,383,272
1115794,262,369,247
1115810,217,415,258
1115826,290,420,242
1115842,257,388,272
1115858,186,444,276
1115873,346,488,367
1115889,355,508,364
1115905,455,508,325
1115921,497,477,389
1115937,493,507,397
1115952,505,513,391
1115968,463,504,438
1115984,492,506,385
1116000,442,513,437
1116016,466,499,365
1116032,421,503,396
1116047,382,503,328
1116063,355,519,375
1116079,324,516,382
1116095,303,455,305
1116111,297,443,301
1116126,260,406,316
1116142,333,391,212
1116158,229,381,241
1116174,202,375,232
1116190,148,343,201
1116206,234,362,229
1116221,154,396,256
1116237,184,372,248
1116253,204,384,235
1116269,207,353,285
1116285,209,359,206
1116300,146,339,202
1116316,160,324,194
1116332,224,321,213
1116348,161,339,221
1116364,114,317,232
1116380,163,386,225
1116395,167,377,246
1116411,188,325,243
1116427,210,440,291
1116443,227,437,251
1116459,234,382,275
1116474,303,482,279
1116490,332,470,306
1116506,352,511,356
1116522,385,507,426
1116538,405,508,379
1116554,403,514,377
1116569,377,510,317
1116585,296,443,352
1116601,324,505,376
1116617,438,511,389
1116633,278,516,418
1116648,287,471,360
1116664,356,468,339
1116680,259,501,331
1116696,277,457,278
1116712,227,391,281
1116728,220,375,291
1116743,223,410,235
1116759,299,356,239
1116775,191,381,221
1116791,205,359,244
1116843,187,346,251
1116853,243,445,291
1116863,298,492,352
1116873,337,492,310
1116883,301,507,324
1116893,252,398,281
1116903,178,341,269
1116917,172,301,179
1116933,161,335,190
1116983,131,354,261
1116993,180,362,272
1117003,229,373,238
1117013,195,355,244
1117023,209,373,237
1117033,323,483,337
1117044,400,505,360
1117060,350,479,313
1117076,367,491,341
1117091,440,508,405
1117107,409,499,370
1117123,372,503,350
1117139,452,504,382
1117155,491,512,360
1117171,502,514,407
1117186,498,513,420
1117202,433,497,417
1117304,378,512,420
1117314,462,508,331
1117324,382,518,340
1117334,383,453,316
1117344,378,451,267
1117354,251,386,239
1117365,275,376,251
1117375,230,382,320
1117385,228,392,250
1117396,240,385,244
1117406,244,393,260
1117416,252,361,274
1117426,223,371,246
1117436,232,429,250
1117446,223,344,233
1117456,212,359,233
1117471,189,347,223
1117487,156,417,272
1117503,108,313,239
1117519,176,299,198
1117534,153,338,750
1117550,145,300,236
1117566,178,364,225
1117582,193,336,208
1117598,189,371,232
1117613,225,378,264
1117629,211,388,254
1117645,234,389,228
1117661,226,422,257
1117677,295,393,221
1117693,316,427,299
1117708,355,449,327
1117724,430,502,330
1117740,385,514,414
1117756,458,511,432
1117772,425,495,423
1117788,402,424,350
1117803,372,506,386
1117819,459,499,392
1117835,396,517,397
1117851,392,499,368
1117867,382,514,342
1117882,331,485,322
1117898,293,449,343
1117914,265,409,329
1117930,365,397,270
1117946,225,452,290
1117962,214,461,300
1117977,249,415,263
1117993,274,411,251
1118009,199,376,256
1118025,279,397,261
1118041,243,428,280
1118056,256,394,260
1118072,232,432,285
1118088,248,451,231
1118104,276,452,209
1118120,156,361,234
1118136,149,294,205
1118151,169,296,202
1118167,219,326,233
1118183,183,350,227
1118199,150,395,226
1118215,221,342,234
1118231,288,419,330
1118246,275,426,249
1118262,260,436,274
1118278,336,502,345
1118294,439,511,379
1118310,479,470,432
1118325,512,506,429
1118341,508,490,426
1118357,495,509,470
1118373,488,487,450
1118389,483,506,419
1118405,501,503,404
1118420,471,514,447
1118436,495,492,402
1118452,495,484,357
1118468,376,512,404
1118484,355,480,373
1118499,332,481,336
1118515,299,467,320
1118531,255,467,280
1118547,308,413,260
1118563,227,460,256
1118579,246,448,246
1118594,321,400,228
1118610,176,387,230
1118626,208,392,226
1118642,219,371,193
1118658,217,416,210
1118673,176,451,234
1118689,213,445,299
1118705,233,392,268
1118721,225,351,239
1118737,131,294,221
1118753,140,330,194
1118768,139,385,208
1118784,129,398,246
1118800,127,376,233
1118816,102,400,250
1118832,176,372,286
1118847,202,396,281
1118863,197,408,204
1118879,251,435,242
1118895,236,453,323
1118911,271,502,320
1118927,374,476,390
1118942,425,492,364
1118958,336,497,331
1118974,414,482,349
1118990,340,453,384
1119006,337,501,361
1119021,421,513,382
1119037,422,524,329
1119053,434,481,365
1119069,384,509,352
1119085,391,493,312
1119101,374,503,329
1119116,333,502,335
1119132,252,389,830
1119148,301,396,306
1119164,253,423,301
1119180,194,418,207
1119196,210,402,222
1119211,228,357,206
1119227,238,351,230
1119243,205,365,210
1119259,186,372,245
1119275,239,374,257
1119290,258,387,229
1119306,210,351,239
1119322,188,317,214
1119338,174,315,190
1119354,153,341,200
1119370,109,335,222
1119385,168,339,206
1119401,124,345,229
1119417,202,363,236
1119433,127,400,232
1119449,139,323,231
1119464,243,395,295
1119480,197,423,241
1119496,348,438,309
1119512,403,503,403
1119528,457,509,465
1119544,516,510,431
1119559,498,510,425
1119575,506,512,480
1119591,509,503,476
1119607,499,516,447
1119623,495,506,475
1119638,463,513,497
1119654,508,515,489
1119670,475,517,443
1119686,477,502,426
1119702,490,506,456
1119718,478,507,394
1119733,441,485,357
1119749,375,481,391
1119765,395,501,324
1119781,440,497,367
1119797,426,511,396
1119812,337,494,410
1119828,338,465,386
1119844,459,505,365
1119860,484,511,416
1119876,463,517,417
1119892,338,505,334
1119908,346,491,382
1119953,418,490,404
1119963,294,500,370
1119975,297,469,314
1119985,232,390,245
1119996,190,358,214
1120097,218,415,217
1120107,191,427,257
1120119,184,377,241
1120129,245,343,300
1120140,257,431,291
1120151,296,477,252
1120162,257,507,319
1120172,334,489,373
1120446,
1120456,454,509,432
1120466,8,505,425
1120476,477,516,442
1120486,431,504,441
1120496,456,520,399
1120506,417,498,439
1120517,449,463,431
1120527,441,506,372
1120537,419,501,402
1120547,444,514,358
1120557,402,492,343
1120567,384,507,336
1120577,343,474,295
1120587,268,375,262
1120597,251,397,259
1120607,275,444,247
1120617,269,436,289
1120627,282,400,261
1120637,239,383,271
1120647,280,418,230
1120657,225,345,238
1120667,192,372,198
1120677,183,360,166
1120687,166,388,209
1120697,221,466,267
1120707,268,385,242
1120717,228,372,238
1120727,226,369,270
1120737,184,366,273
1120747,194,388,229
1120757,152,372,240
1120767,205,347,217
1120777,138,296,268
1120787,160,382,212
1120797,241,457,257
1120807,194,384,271
1120817,305,484,315
1120827,302,503,301
1120837,407,461,384
1120847,424,487,414
1120857,474,510,401
1120867,446,506,376
1120877,491,510,360
1120887,410,519,427
1120897,407,478,364
1120907,440,509,381
1120917,353,504,433
1120927,452,502,328
1120937,502,496,420
1120947,447,512,367
1120957,433,508,414
1120967,352,497,333
1120977,294,488,342
1120987,280,487,304
1120999,406,511,319
1121015,425,510,346
1121031,349,511,350
1121046,429,499,377
1121062,496,508,445
1121078,509,516,442
1121094,478,513,416
1121110,501,507,521
1121126,500,509,418
1121141,497,508,434
1121157,505,509,443
1121173,388,517,400
1121189,271,472,316
1121205,163,358,313
1121220,184,354,265
1121236,142,382,247
1121252,194,411,210
1121268,254,464,315
1121284,187,472,292
1121300,252,518,300
1121315,259,493,331
1121331,371,513,404
1121347,393,509,355
1121363,421,507,390
1121379,476,521,418
1121394,489,499,407
1121410,479,505,465
1121426,454,510,393
1121442,412,510,424
1121458,403,515,329
1121474,368,515,369
1121489,440,470,376
1121505,372,487,361
1121521,391,491,319
1121537,314,481,333
1121553,320,408,306
1121568,376,452,284
1121584,280,397,253
1121600,229,373,247
1121616,203,377,257
1121632,246,393,258
1121648,187,377,219
1121663,179,362,212
1121679,176,373,227
1121695,201,387,189
1121711,170,333,200
1121727,172,350,264
1121742,184,347,228
1121758,186,373,196
1121774,231,344,192
1121790,171,323,230
1121806,188,324,214
1121822,142,341,220
1121837,194,332,227
1121853,185,341,213
1121868,38,353,231
1121885,186,429,266
1121901,156,386,245
1121916,245,407,213
1121932,217,418,225
1121948,211,487,309
1121964,390,468,287
1121980,477,505,378
1121996,387,463,405
1122011,325,493,277
1122027,394,498,354
1122043,429,507,367
1122059,436,508,404
1122075,429,512,409
1122090,400,507,387
1122106,384,494,283
1122122,274,431,307
1122138,220,367,254
1122154,257,477,313
1122170,296,466,329
1122185,274,424,264
1122201,276,411,301
1122217,314,454,327
1122233,161,463,267
1122249,261,424,230
1122265,379,499,345
1122280,486,512,432
1122296,509,511,450
1122312,506,505,516
1122328,501,511,504
1122344,504,515,470
1122359,488,502,499
1122375,509,500,442
1122391,331,445,284
1122407,246,469,307
1122423,279,494,372
1122439,294,492,288
1122454,315,513,377
1122470,324,509,368
1122486,393,486,362
1122502,293,503,431
1122518,471,522,412
1122534,442,513,407
1122549,450,511,379
1122565,506,509,440
1122581,491,510,486
1122597,489,501,386
1122613,458,512,347
1122628,499,511,418
1122644,467,497,388
1122660,497,489,433
1122676,485,491,413
1122692,482,506,437
1122708,447,517,363
1122723,452,509,352
1122739,304,393,245
1122755,283,481,256
1122771,202,425,278
1122787,273,479,334
1122802,310,462,341
1122818,268,400,268
1122834,305,457,303
1122850,322,472,341
1122866,266,381,251
1122882,285,376,278
1122897,252,405,250
1122913,270,381,237
1122929,256,383,293
1122945,227,401,328
1122961,197,377,233
1122977,161,364,188
1123029,202,411,199
1123039,211,431,248
1123050,249,418,253
1123060,269,423,256
1123127,312,420,286
1123137,337,455,304
1123147,352,461,292
1123157,273,356,281
1123167,309,390,291
1123177,254,449,281
1123188,219,482,263
1123198,319,507,297
1123209,236,444,248
1123219,267,406,289
1123229,317,419,219
1123321,320,471,237
1123331,346,497,302
1123341,361,499,346
1123351,405,503,344
1123361,331,513,360
1123371,401,502,372
1123381,402,507,381
1123391,361,493,426
1123401,384,508,399
1123411,435,509,344
1123421,291,447,342
1123431,288,468,274
1123441,282,476,296
1123451,223,385,231
1123461,154,328,185
1123471,148,316,195
1123483,154,296,193
1123499,148,321,233
1123514,132,310,209
1123530,155,379,217
1123546,196,408,223
1123562,209,436,180
1123578,194,421,308
1123593,208,449,265
1123609,248,508,277
1123625,293,509,260
1123641,252,516,292
1123657,239,476,281
1123673,159,478,262
1123688,203,465,234
1123704,314,494,291
1123720,224,491,325
1123736,242,478,334
1123752,314,467,354
1123767,246,492,351
1123784,285,496,403
1123800,372,477,340
1123815,478,511,345
1123831,338,487,354
1123847,215,296,196
1123862,213,362,227
1123878,367,462,251
1123894,352,504,341
1123910,401,460,387
1123926,407,502,326
1123941,382,447,420
1123957,392,494,416
1123973,395,507,372
1123989,332,518,334
1124005,395,451,333
1124021,383,491,380
1124036,304,487,350
1124052,386,495,329
1124068,349,461,267
1124084,228,443,241
1124100,324,428,269
1124116,263,407,275
1124131,315,423,343
1124147,321,391,386
1124163,280,429,273
1124179,335,433,271
1124195,191,382,288
1124210,248,473,274
1124226,365,457,247
1124242,306,490,287
1124258,304,446,278
1124274,342,473,368
1124290,315,478,415
1124305,341,457,352
1124321,244,442,244
1124337,263,429,265
1124353,314,405,298
1124369,264,436,268
1124384,343,502,276
1124400,342,457,332
1124416,296,500,330
1124432,412,504,391
1124448,458,520,395
1124464,366,501,314
1124479,403,455,285
1124495,380,443,351
1124511,400,491,348
1124527,451,492,351
1124543,414,490,333
1124558,428,474,320
1124574,434,506,297
1124590,371,456,372
1124606,311,478,315
1124622,363,504,309
1124638,325,490,319
1124653,346,479,306
1124669,370,508,331
1124685,282,478,276
1124701,279,483,361
1124717,456,512,450
1124733,491,516,477
1124748,509,513,521
1124764,496,515,467
1124780,498,502,482
1124796,504,504,455
1124812,408,513,329
1124827,324,469,290
1124843,199,413,278
1124859,170,351,227
1124875,206,329,188
1124891,126,352,254
1124907,178,467,300
1124922,306,443,218
1124938,294,452,322
1124954,247,468,263
1124970,333,504,303
1124986,448,463,433
1125001,461,502,359
1125017,398,494,402
1125033,484,520,444
1125049,459,516,485
1125065,503,515,481
1125081,406,481,394
1125096,405,464,390
1125112,384,500,415
1125128,413,498,432
1125144,425,513,431
1125160,449,512,419
1125175,348,505,416
1125191,353,478,422
1125207,318,451,310
1125223,256,462,262
1125239,349,491,373
1125255,388,475,365
1125270,328,509,297
1125286,271,424,253
1125302,266,444,288
1125318,243,384,211
1125334,192,377,238
1125349,189,335,202
1125365,224,320,179
1125381,227,313,201
1125397,193,326,247
1125413,249,364,165
1125429,196,337,189
1125444,209,333,200
1125460,176,336,206
1125476,217,349,222
1125491,96,361,223
1125508,278,334,263
1125523,299,393,243
1125539,187,373,245
1125555,282,449,253
1125571,253,495,315
1125587,378,487,358
1125603,374,507,334
1125618,371,463,354
1125634,436,515,328
1125650,462,490,325
1125666,353,508,396
1125682,460,510,370
1125697,451,519,369
1125713,371,495,338
1125729,436,516,392
1125745,363,521,410
1125761,352,512,407
1125777,352,477,298
1125792,391,487,319
1125808,329,407,322
1125824,259,421,282
1125840,250,473,312
1125856,287,407,256
1125871,282,458,188
1125887,367,438,275
1125903,409,498,350
1125919,498,510,446
1125935,512,519,424
1125951,513,514,524
1125966,509,517,585
1125982,495,504,461
1125998,476,489,493
1126014,504,508,389
1126030,322,471,297
1126046,153,376,252
1126061,233,488,257
1126077,232,507,354
1126093,189,481,339
1126109,141,475,346
1126125,366,513,407
1126140,472,504,326
1126156,443,506,410
1126172,446,509,417
1126188,458,510,492
1126204,524,509,481
1126220,501,512,425
1126235,491,512,501
1126251,464,512,505
1126267,476,521,474
1126312,483,513,493
1126322,461,512,505
1126332,466,511,441
1126342,514,514,443
1126352,420,501,384
1126362,492,509,375
1126378,491,510,422
1126394,448,489,428
1126409,437,492,339
1126425,279,494,348
1126441,268,467,307
1126497,355,469,291
1126507,303,437,259
1126517,285,406,257
1126527,167,389,287
1126538,299,412,257
1126548,251,383,256
1126558,360,473,316
1126799,309,450,342
1126809,239,391,304
1126819,180,361,259
1126829,185,337,252
1126839,176,318,187
1126849,196,300,206
1126859,224,334,244
1126869,128,353,204
1126879,232,380,190
1126889,209,392,245
1126899,179,345,269
1126909,248,349,253
1126922,284,447,219
1126932,320,497,350
1126942,410,503,354
1126952,431,509,381
1126962,486,512,374
1126972,455,515,424
1126982,464,507,439
1126992,426,501,446
1127002,485,509,477
1127012,504,509,425
1127022,506,504,379
1127032,458,503,435
1127042,457,518,390
1127052,492,518,399
1127062,430,461,384
1127072,383,509,375
1127082,405,518,373
1127092,373,498,372
1127102,316,428,304
1127112,215,437,311
1127122,367,489,402
1127132,331,468,312
1127142,295,450,284
1127152,266,381,288
1127162,262,400,244
1127172,246,392,224
1127182,261,367,219
1127192,683,335,281
1127202,185,343,222
1127216,189,365,218
1127232,201,376,281
1127248,726,338,227
1127264,185,368,224
1127279,246,348,229
1127295,185,381,197
1127311,152,370,254
1127327,135,339,207
1127343,242,375,249
1127359,280,495,316
1127374,381,510,352
1127390,426,511,423
1127406,529,510,457
1127422,494,510,478
1127438,492,508,473
1127453,508,509,436
1127469,484,513,486
1127485,503,514,508
1127501,495,503,497
1127517,522,509,509
1127533,495,522,482
1127548,508,518,507
1127564,458,499,510
1127580,497,511,474
1127596,493,516,470
1127612,507,511,455
1127627,480,507,398
1127643,424,507,390
1127659,458,515,403
1127675,477,512,401
1127691,462,518,473
1127707,506,512,479
1127722,513,513,532
1127738,498,505,508
1127754,511,519,485
1127770,484,517,489
1127786,435,512,425
1127802,494,505,368
1127817,343,511,334
1127833,228,481,353
1127849,288,502,286
1127865,263,424,324
1127881,297,464,345
1127896,393,506,312
1127912,324,509,294
1127928,231,504,258
1127944,361,510,374
1127960,442,497,414
1127976,383,522,413
1127991,414,510,425
1128007,504,496,418
1128023,524,507,458
1128039,498,511,469
1128055,502,513,473
1128070,450,507,479
1128086,494,514,470
1128102,514,505,450
1128118,506,507,470
1128134,526,517,506
1128150,486,515,499
1128165,468,511,499
1128181,400,493,484
1128197,412,486,438
1128213,430,487,351
1128229,394,480,361
1128245,415,503,367
1128260,427,510,409
1128276,356,498,387
1128292,298,509,337
1128308,282,423,313
1128324,323,434,315
1128339,338,383,267
1128355,289,398,258
1128371,220,482,324
1128387,273,461,237
1128403,280,449,274
1128419,225,351,222
1128434,208,313,192
1128450,176,331,216
1128466,185,347,180
1128482,220,377,250
1128498,206,361,206
1128513,182,346,252
1128528,94,356,264
1128545,249,370,251
1128561,292,486,212
1128577,352,502,254
1128592,292,506,321
1128608,293,515,411
1128624,422,500,382
1128640,386,486,370
1128656,433,493,404
1128672,388,498,406
1128687,426,505,395
1128703,466,515,352
1128719,437,503,367
1128735,447,500,431
1128751,412,504,457
1128767,493,509,431
1128782,442,508,366
1128798,430,500,342
1128814,405,483,394
1128830,320,407,333
1128846,280,470,338
1128861,333,502,374
1128877,292,440,333
1128893,274,471,354
1128909,274,422,261
1128925,290,387,237
1128941,307,428,319
1128956,228,398,272
1128972,328,443,265
1128988,380,503,393
1129004,338,506,419
1129020,339,476,331
1129035,318,508,274
1129051,307,475,248
1129067,294,419,277
1129083,336,441,302
1129099,336,467,297
1129115,505,509,361
1129130,246,491,352
1129146,325,504,376
1129162,322,514,355
1129178,464,508,381
1129194,380,510,339
1129209,395,511,405
1129225,516,509,464
1129241,545,511,493
1129257,489,505,489
1129273,502,511,494
1129289,509,509,506
1129304,504,514,509
1129320,508,522,460
1129336,508,506,467
1129352,525,507,495
1129368,492,507,472
1129383,531,499,474
1129399,503,513,504
1129415,535,509,417
1129431,489,499,474
1129447,440,512,465
1129463,427,514,415
1129478,472,518,438
1129494,441,470,377
1129510,461,506,383
1129526,355,430,346
1129542,265,410,244
1129595,369,402,187
1129605,291,417,278
1129615,281,415,255
1129625,290,442,271
1129635,254,372,271
1129645,219,337,213
1129655,194,328,229
1129668,208,365,228
1129684,203,316,202
1129700,301,376,227
1129716,168,352,180
1129732,264,354,196
1129747,193,361,193
1129763,164,371,180
1129779,297,416,277
1129795,319,450,209
1129811,298,463,287
1129826,353,461,322
1129842,415,502,398
1129858,408,503,354
1129874,477,497,351
1129890,481,515,373
1129906,509,504,398
1129921,503,506,456
1129937,469,515,442
1129953,498,525,494
1129969,457,503,454
1129985,499,506,443
1130000,499,508,427
1130016,502,493,437
1130032,425,497,416
1130086,436,509,390
1130096,379,506,336
1130107,327,475,332
1130117,302,484,368
1130127,389,507,411
1130138,409,511,434
1130148,318,481,324
1130159,360,516,342
1130175,462,467,426
1130190,451,503,352
1130206,479,517,471
1130328,443,518,408
1130338,481,503,321
1130348,348,489,311
1130358,257,387,224
1130369,260,393,235
1130379,190,348,245
1130389,235,391,212
1130399,223,400,225
1130409,229,420,210
1130419,190,372,230
1130429,321,458,287
1130439,442,482,380
1130449,417,511,402
1130459,474,473,380
1130469,520,499,469
1130479,500,509,436
1130489,470,499,456
1130499,487,504,486
1130509,476,511,508
1130523,506,513,508
1130538,445,524,468
1130554,453,512,476
1130570,458,515,453
1130586,471,499,412
1130602,517,501,428
1130617,458,502,448
1130633,391,485,379
1130649,420,494,433
1130665,371,504,354
1130681,328,452,312
1130697,325,503,338
1130712,315,472,349
1130728,355,422,326
1130744,315,456,296
1130760,293,396,245
1130776,179,356,208
1130791,194,307,255
1130807,148,337,291
1130823,153,345,206
1130839,195,426,228
1130855,171,344,218
1130871,142,322,225
1130886,141,349,203
1130902,141,356,201
1130918,167,357,232
1130934,148,356,247
1130949,98,342,231
1130965,213,345,275
1130981,194,400,244
1130997,251,464,312
1131013,142,463,277
1131029,297,441,327
1131045,324,447,450
1131060,391,486,355
1131076,387,503,313
1131092,375,493,267
1131108,359,465,267
1131124,434,483,364
1131139,342,478,399
1131155,419,498,377
1131171,442,507,421
1131187,363,487,409
1131203,416,506,345
1131219,412,513,414
1131234,459,505,405
1131250,389,503,408
1131266,448,452,450
1131282,381,454,355
1131298,359,409,299
1131314,239,403,253
1131329,243,397,260
1131345,229,379,221
1131361,199,382,194
1131377,264,364,242
1131393,291,488,287
1131408,444,503,417
1131424,499,498,415
1131440,472,513,369
1131456,423,500,390
1131472,390,465,404
1131488,313,490,394
1131503,298,495,366
1131519,409,509,354
1131535,400,500,297
1131551,355,513,272
1131567,377,491,442
1131583,497,527,366
1131598,502,512,456
1131614,499,507,368
1131630,282,503,390
1131646,485,505,426
1131662,555,508,505
1131677,477,498,494
1131693,491,509,481
1131709,507,507,511
1131725,509,513,500
1131741,515,515,474
1131757,505,516,477
1131772,478,507,507
1131788,509,502,514
1131804,433,507,481
1131820,505,518,503
1131836,401,518,493
1131851,497,511,462
1131867,466,512,510
1131883,439,510,368
1131899,468,508,382
1131915,493,512,367
1131931,425,483,458
1131946,405,485,465
1131962,497,484,407
1131978,510,515,491
1131994,513,510,483
1132010,492,500,477
1132025,510,515,463
1132041,513,501,397
1132057,485,509,412
1132073,498,506,428
1132089,505,522,477
1132105,518,501,425
1132120,495,502,360
1132136,449,498,389
1132152,457,486,394
1132168,382,516,393
1132184,397,457,374
1132199,391,524,346
1132215,482,496,361
1132231,447,510,362
1132247,487,505,382
1132263,503,509,416
1132279,534,515,452
1132294,498,508,495
1132310,504,510,498
1132326,510,503,509
1132342,505,517,506
1132358,502,510,478
1132373,487,516,510
1132389,518,504,513
1132405,500,517,448
1132421,527,516,466
1132437,524,497,474
1132453,518,497,403
1132468,486,509,464
1132484,495,495,485
1132500,464,530,409
1132516,428,508,341
1132532,414,465,357
1132548,439,506,342
1132563,423,527,267
1132579,296,501,296
1132595,405,508,409
1132611,367,513,443
1132627,391,515,437
1132642,329,491,265
1132658,303,453,313
1132674,264,428,305
1132690,192,390,223
1132706,213,395,203
1132722,149,384,178
1132737,229,394,214
1132753,214,327,236
1132769,135,335,194
1132785,137,338,249
1132801,231,426,225
1132816,344,463,247
1132832,325,470,274
1132848,339,491,350
1132864,378,464,368
1132880,494,500,342
1132896,495,511,382
1132911,492,517,428
1132954,503,511,495
1132964,511,515,478
1132974,510,510,501
1132984,518,508,506
1133023,513,527,513
1133033,502,515,510
1133043,532,516,512
1133053,489,507,506
1133063,497,493,437
1133073,445,491,460
1133085,494,498,438
1133161,339,510,348
1133171,427,514,382
1133181,340,491,369
1133191,400,509,370
1133201,384,505,317
1133212,459,516,416
1133222,462,508,474
1133233,505,512,516
1133243,512,509,512
1133253,498,510,541
1133264,511,512,484
1133275,508,515,465
1133291,441,510,382
1133307,326,508,343
1133323,373,478,362
1133338,410,486,349
1133354,487,441,398
1133370,350,502,391
1133386,456,510,371
1133402,428,520,405
1133418,499,526,415
1133433,422,510,466
1133449,504,507,412
1133465,518,491,455
1133481,539,505,450
1133497,500,486,465
1133513,502,514,502
1133528,504,499,461
1133544,458,517,482
1133560,492,517,508
1133576,464,503,503
1133592,486,514,497
1133607,490,521,460
1133623,489,509,465
1133639,487,517,462
1133655,489,502,450
1133671,488,502,493
1133687,479,512,510
1133702,464,518,443
1133718,503,487,415
1133734,413,501,438
1133750,414,511,423
1133766,300,508,409
1133781,436,463,425
1133797,340,500,437
1133813,324,516,324
1133829,311,539,291
1133845,339,494,332
1133861,306,523,295
1133876,218,434,261
1133892,222,351,188
1133908,156,349,221
1133924,198,352,176
1133940,180,375,206
1133955,210,359,197
1133971,157,355,211
1133987,213,334,225
1134003,247,375,200
1134019,327,450,217
1134035,254,452,176
1134050,328,495,310
1134066,370,500,373
1134082,453,502,312
1134098,381,474,364
1134114,438,497,367
1134130,478,498,371
1134145,478,506,416
1134161,468,520,421
1134177,513,503,377
1134193,468,513,456
1134209,509,497,470
1134224,474,505,477
1134240,513,517,424
1134256,461,513,344
1134272,432,478,339
1134288,406,475,465
1134304,344,478,399
1134319,399,503,405
1134335,313,450,320
1134351,354,413,282
1134367,282,362,310
1134383,289,424,296
1134398,482,500,457
1134414,501,509,502
1134430,482,511,534
1134446,460,515,524
1134462,480,507,460
1134478,509,503,456
1134493,478,507,497
1134509,492,501,473
1134525,500,504,511
1134541,511,510,510
1134557,516,515,510
1134573,495,506,494
1134588,483,509,513
1134604,471,491,455
1134620,514,522,489
1134636,497,506,467
1134652,430,512,432
1134667,504,511,397
1134683,537,506,467
1134699,514,503,458
1134715,489,510,475
1134731,501,510,481
1134747,494,515,484
1134762,516,503,511
1134778,514,508,499
1134794,508,524,443
1134810,556,514,478
1134826,490,514,477
1134842,501,523,446
1134857,459,501,400
1134873,490,513,401
1134889,510,482,429
1134905,492,488,312
1134921,508,470,397
1134936,394,525,357
1134952,392,509,321
1134968,305,392,317
1134984,310,357,228
1135000,258,450,229
1135016,246,431,204
1135031,256,407,195
1135047,248,395,251
1135063,249,374,208
1135079,211,386,248
1135095,214,349,267
1135110,227,371,268
1135126,152,411,268
1135142,225,368,200
1135158,264,372,234
1135174,188,373,194
1135190,136,351,221
1135205,122,378,237
1135221,294,440,240
1135237,302,470,315
1135253,252,442,259
1135269,296,492,295
1135284,419,507,369
1135300,425,488,378
1135316,449,501,386
1135332,498,511,392
1135348,451,511,435
1135364,499,514,489
1135379,505,519,509
1135395,452,508,502
1135411,532,520,454
1135427,519,498,498
1135443,558,508,470
1135458,503,520,468
1135474,503,508,398
1135490,460,520,373
1135506,400,496,383
1135522,357,476,341
1135538,406,424,344
1135553,370,494,332
1135569,391,488,252
1135585,481,512,326
1135601,449,508,461
1135617,495,512,482
1135632,509,507,527
1135648,486,517,491
1135664,507,516,496
1135680,499,515,490
1135696,499,500,509
1135712,496,514,510
1135727,516,508,504
1135743,513,514,509
1135759,502,512,510
1135775,516,510,423
1135791,492,507,421
1135807,399,509,470
1135822,472,511,447
1135838,497,516,459
1135854,483,510,507
1135870,524,500,483
1135886,516,506,509
1135925,537,509,482
1135935,504,513,485
1135945,503,521,501
1135955,508,514,507
1135965,510,516,501
1136027,489,513,501
1136037,457,525,511
1136047,498,518,513
1136057,497,519,509
1136067,512,528,510
1136077,488,483,495
1136087,534,506,480
1136097,473,509,496
1136109,500,501,439
1136123,496,502,423
1136210,490,504,435
1136220,480,511,368
1136231,503,509,321
1136241,510,516,457
1136251,512,498,520
1136261,509,514,510
1136271,514,524,462
1136281,514,512,504
1136291,487,522,514
1136301,497,510,492
1136311,466,498,468
1136321,504,508,524
1136331,503,509,493
1136344,514,510,498
1136360,496,489,453
1136376,494,502,409
1136392,381,518,389
1136408,443,511,430
1136424,447,520,445
1136439,471,522,382
1136455,437,503,327
1136471,476,512,343
1136487,506,510,382
1136503,546,509,463
1136518,487,479,463
1136534,505,514,491
1136550,500,513,507
1136566,510,516,496
1136582,507,519,507
1136598,475,509,504
1136613,520,522,460
1136629,481,520,460
1136645,509,522,449
1136661,521,510,461
1136677,505,482,420
1136692,497,499,425
1136708,487,509,459
1136724,482,495,396
1136740,344,484,362
1136756,358,505,335
1136772,288,509,348
1136787,321,433,334
1136803,247,386,251
1136819,306,416,260
1136835,269,388,268
1136851,265,353,301
1136866,253,366,221
1136882,209,347,188
1136898,160,318,234
1136914,200,338,128
1136930,193,371,189
1136946,172,370,170
1136961,162,352,240
1136977,177,408,210
1136993,199,369,262
1137009,138,361,237
1137025,292,398,285
1137040,314,472,204
1137056,334,513,238
1137072,230,506,323
1137088,386,510,346
1137104,437,509,382
1137120,385,408,377
1137135,428,491,393
1137151,463,497,480
1137167,501,524,493
1137183,510,515,458
1137199,515,527,474
1137214,494,517,495
1137230,511,516,492
1137246,394,509,492
1137262,490,517,416
1137278,489,502,479
1137294,506,513,366
1137309,493,514,354
1137325,513,508,425
1137341,477,502,463
1137357,488,494,393
1137373,503,510,465
1137388,498,511,465
1137404,481,511,514
1137420,505,491,528
1137436,455,510,495
1137452,494,506,497
1137468,510,521,520
1137483,512,502,498
1137499,512,508,491
1137515,477,507,497
1137531,499,516,503
1137547,506,506,468
1137563,522,513,473
1137578,497,522,498
1137594,481,506,506
1137610,490,509,464
1137626,524,500,506
1137642,509,538,438
1137657,521,504,432
1137673,418,510,496
1137689,473,511,454
1137705,522,509,481
1137721,554,510,507
1137737,473,507,503
1137752,501,509,508
1137768,497,508,512
1137784,506,511,499
1137800,505,513,508
1137816,485,509,499
1137831,529,505,484
1137847,508,512,497
1137863,507,519,474
1137879,468,512,448
1137895,483,486,453
1137911,493,517,490
1137926,495,512,481
1137942,486,509,487
1137958,499,501,441
1137974,495,511,384
1137990,503,490,336
1138005,394,514,364
1138021,418,500,252
1138037,414,506,347
1138053,437,507,440
1138069,443,506,430
1138085,408,499,337
1138100,300,468,325
1138116,220,425,270
1138132,179,426,240
1138148,207,358,232
1138164,219,344,257
1138179,202,371,242
1138195,142,392,292
1138211,224,380,227
1138227,173,356,242
1138243,335,401,246
1138259,323,493,283
1138274,288,490,233
1138290,369,506,244
1138306,402,508,287
1138322,411,511,340
1138338,402,511,351
1138353,417,495,384
1138369,500,504,437
1138385,495,510,451
1138401,464,512,423
1138417,447,503,448
1138433,500,503,496
1138448,516,510,485
1138464,521,515,403
1138480,480,503,367
1138496,494,498,353
1138512,416,501,385
1138527,356,508,348
1138543,400,482,284
1138559,373,451,303
1138575,359,500,332
1138591,311,425,342
1138607,331,430,290
1138622,337,369,276
1138638,277,397,257
1138654,393,495,283
1138670,429,450,328
1138686,465,488,391
1138702,358,507,474
1138717,314,517,377
1138733,263,461,253
1138749,206,413,229
1138765,158,409,188
1138819,211,477,211
1138829,249,492,267
1138839,377,451,252
1138849,280,513,303
1138860,349,475,401
1138931,462,519,313
1138941,471,502,423
1138951,456,527,477
1138961,477,513,511
1138971,504,510,510
1138981,542,508,512
1138991,498,503,516
1139002,504,524,514
1139012,511,515,490
1139125,495,523,492
1139135,509,512,492
1139146,493,511,482
1139157,512,501,490
1139167,515,510,496
1139178,557,506,480
1139188,520,493,509
1139200,505,510,487
1139210,509,507,486
1139220,496,510,449
1139230,484,513,474
1139240,499,509,464
1139250,501,512,462
1139260,507,518,455
1139270,495,505,396
1139280,502,508,459
1139290,504,508,492
1139300,511,525,440
1139310,511,512,489
1139320,491,517,385
1139330,496,518,518
1139340,507,521,487
1139350,507,515,499
1139366,461,508,510
1139382,383,504,403
1139398,421,479,471
1139413,442,501,404
1139429,351,479,388
1139445,309,461,397
1139461,338,533,460
1139477,445,501,303
1139493,440,483,377
1139508,473,504,388
1139524,534,469,409
1139540,517,503,409
1139556,500,509,440
1139572,506,503,503
1139587,502,507,485
1139603,480,496,473
1139619,498,515,501
1139635,498,510,505
1139651,514,516,511
1139667,447,516,501
1139682,497,498,509
1139698,536,510,467
1139714,514,517,460
1139730,516,503,451
1139746,501,514,470
1139761,453,516,407
1139777,457,515,415
1139793,442,514,383
1139809,366,436,359
1139825,290,449,281
1139841,321,491,303
1139856,326,509,280
1139872,335,437,215
1139888,198,382,264
1139904,225,370,191
1139920,155,333,196
1139935,190,339,178
1139951,268,329,168
1139967,239,358,201
1139983,205,347,227
1139999,172,317,216
1140015,199,364,245
1140030,235,337,210
1140046,199,321,256
1140062,205,419,336
1140078,302,475,294
1140094,321,504,312
1140110,348,491,376
1140125,317,507,447
1140141,461,478,382
1140157,452,488,411
1140173,478,511,390
1140189,434,502,423
1140204,497,498,451
1140220,486,507,458
1140236,506,486,503
1140252,540,516,513
1140268,464,515,457
1140284,501,524,390
1140299,502,528,466
1140315,482,511,482
1140331,465,495,467
1140347,496,510,416
1140363,484,525,421
1140378,447,495,362
1140394,498,515,354
1140410,446,513,401
1140426,468,501,449
1140442,507,506,399
1140458,501,514,487
1140473,510,515,485
1140489,509,503,468
1140505,507,496,488
1140521,509,508,441
1140537,513,511,538
1140553,505,491,498
1140568,475,492,470
1140584,520,503,437
1140600,500,515,493
1140616,476,511,504
1140632,530,502,471
1140647,456,503,441
1140663,503,506,471
1140679,513,524,453
1140695,503,502,345
1140711,442,500,377
1140727,529,510,447
1140742,548,507,488
1140758,498,507,502
1140774,493,511,499
1140790,510,508,499
1140806,514,519,496
1140821,482,523,474
1140837,521,511,498
1140853,536,501,509
1140869,513,494,507
1140885,508,503,509
1140901,473,514,437
1140916,533,523,402
1140932,504,507,465
1140948,501,509,501
1140964,521,506,514
1140980,508,510,459
1140995,481,516,441
1141011,494,502,462
1141027,510,506,499
1141043,495,517,510
1141059,499,514,516
1141075,510,513,499
1141090,510,508,431
1141106,471,497,416
1141122,381,503,278
1141138,293,466,226
1141154,241,362,254
1141169,211,340,308
1141185,235,346,177
1141201,252,391,208
1141217,284,418,234
1141233,249,479,275
1141249,147,348,219
1141264,214,367,244
1141280,273,440,264
1141296,298,445,194
1141312,206,462,296
1141328,349,444,241
1141343,479,487,410
1141359,425,503,462
1141375,477,519,415
1141391,501,507,416
1141407,428,488,434
1141423,494,510,474
1141438,521,501,486
1141454,503,521,458
1141470,520,510,464
1141486,459,501,401
1141502,468,514,405
1141517,458,513,322
1141533,454,518,377
1141549,469,520,412
1141565,465,519,458
1141581,492,505,456
1141597,474,513,477
1141612,375,515,339
1141628,451,505,379
1141644,503,508,437
1141660,511,510,480
1141676,513,509,414
1141692,497,495,497
1141707,487,504,473
1141723,510,507,423
1141739,511,504,418
1141755,509,514,504
1141771,510,509,467
1141786,498,513,488
1141802,503,507,481
1141818,519,505,483
1141834,514,512,477
1141901,507,516,457
1141911,509,499,527
1141921,507,523,455
1141931,496,525,473
1141941,488,502,448
1141951,518,514,502
1141961,510,509,503
1142068,518,513,506
1142078,492,508,485
1142088,479,510,505
1142098,508,514,508
1142108,504,519,480
1142120,517,516,506
1142130,493,511,509
1142141,518,519,512
1142152,501,507,513
1142162,549,497,502
1142173,486,511,503
1142183,539,500,504
1142193,492,499,465
1142203,508,509,473
1142213,513,504,493
1142224,503,510,476
1142234,491,507,487
1142305,481,513,394
1142316,444,471,391
1142326,323,412,286
1142336,378,498,297
1142346,326,505,377
1142356,324,512,352
1142366,331,444,283
1142376,808,410,303
1142386,216,349,226
1142396,227,425,218
1142406,149,436,236
1142418,242,353,197
1142428,197,349,287
1142439,279,446,250
1142451,199,422,310
1142467,298,427,282
1142483,308,411,298
1142498,376,418,233
1142514,293,464,321
1142530,347,494,416
1142546,348,445,394
1142562,461,500,354
1142578,442,499,345
1142593,492,510,437
1142609,497,513,445
1142625,494,517,407
1142641,513,527,431
1142657,465,512,396
1142672,494,520,423
1142688,415,504,430
1142704,483,482,407
1142720,457,513,411
1142736,488,504,416
1142752,506,507,386
1142767,436,467,413
1142783,434,505,348
1142799,425,488,308
1142815,344,448,335
1142831,267,359,271
1142846,252,412,267
1142862,227,405,265
1142878,232,406,193
1142894,259,427,242
1142910,297,496,267
1142926,386,512,360
1142941,395,522,403
1142957,412,510,262
1142973,369,509,282
1142989,408,521,356
1143005,364,474,258
1143021,244,470,253
1143036,350,482,308
1143052,277,484,300
1143068,267,447,286
1143084,324,506,296
1143100,468,501,359
1143115,481,515,437
1143131,498,511,383
1143147,448,513,398
1143163,514,517,402
1143179,503,534,488
1143195,502,504,479
1143210,507,512,483
1143226,520,517,508
1143242,512,513,502
1143258,491,494,503
1143274,506,507,491
1143289,483,496,437
1143305,473,478,414
1143321,414,513,358
1143337,434,460,390
1143353,395,495,421
1143369,406,509,440
1143384,443,512,455
1143400,374,507,413
1143416,452,478,344
1143432,329,405,312
1143448,277,392,283
1143463,221,433,278
1143479,257,392,279
1143495,288,441,301
1143511,246,441,321
1143527,269,395,158
1143543,195,407,175
1143558,192,364,238
1143574,183,323,211
1143590,186,330,201
1143606,192,409,197
1143622,234,321,234
1143637,207,367,233
1143653,236,377,168
1143669,197,360,284
1143685,288,457,299
1143701,252,365,354
1143717,308,478,316
1143732,350,499,433
1143748,380,511,448
1143764,459,475,428
1143780,398,487,395
1143796,375,497,411
1143811,482,518,467
1143827,456,525,466
1143843,521,487,467
1143859,474,481,444
1143875,488,503,458
1143891,546,516,419
1143906,484,517,362
1143922,487,497,395
1143938,436,504,471
1143954,486,500,328
1143970,388,481,377
1143985,354,491,310
1144001,339,469,461
1144017,369,415,347
1144033,284,415,264
1144049,219,336,261
1144065,230,400,278
1144080,282,498,297
1144096,266,462,343
1144112,246,477,326
1144128,288,456,193
1144144,220,370,253
1144159,212,426,228
1144175,213,337,207
1144191,279,361,217
1144207,237,390,221
1144223,313,388,263
1144239,292,407,222
1144254,319,467,226
1144270,296,485,299
1144286,415,512,357
1144302,488,516,355
1144318,486,482,434
1144334,463,510,486
1144349,504,492,475
1144365,534,498,506
1144381,498,500,517
1144397,507,520,514
1144413,508,505,513
1144428,494,506,470
1144444,496,504,507
1144460,509,483,509
1144476,504,503,498
1144492,501,518,484
1144508,557,512,507
1144523,522,505,497
1144539,500,472,456
1144555,498,512,493
1144571,505,506,513
1144587,516,493,418
1144603,478,511,456
1144618,494,499,498
1144634,509,507,353
1144650,366,446,381
1144666,344,503,449
1144682,300,486,397
1144697,412,506,329
1144713,318,471,284
1144729,330,490,246
1144745,314,479,241
1144761,278,517,284
1144777,229,436,258
1144792,222,422,304
1144808,225,364,223
1144824,165,379,196
1144840,226,393,213
1144856,309,405,196
1144872,191,415,246
1144887,193,345,258
1144903,320,424,265
1144919,403,487,283
1144985,372,477,285
1144995,443,455,372
1145005,479,495,413
1145015,375,472,330
1145025,459,510,445
1145035,479,489,468
1145045,498,509,451
1145055,497,517,427
1145065,516,516,485
1145077,541,499,500
1145121,525,502,362
1145132,522,519,339
1145142,443,518,434
1145154,368,499,389
1145165,382,494,373
1145175,378,503,438
1145241,482,495,413
1145251,469,515,475
1145261,434,503,383
1145271,412,499,430
1145281,357,505,269
1145291,322,415,285
1145301,294,434,305
1145311,241,404,280
1145321,274,348,222
1145331,225,379,257
1145346,277,368,268
1145362,216,349,251
1145378,191,305,211
1145394,160,286,208
1145409,214,334,226
1145425,203,352,216
1145441,236,367,205
1145457,266,339,241
1145473,225,445,341
1145488,417,509,391
1145504,485,471,395
1145520,443,515,418
1145536,481,485,468
1145552,510,507,484
1145568,515,515,510
1145583,485,509,517
1145599,499,502,511
1145615,507,511,484
1145631,505,506,508
1145647,489,504,510
1145662,485,509,510
1145678,500,503,489
1145694,491,523,508
1145710,519,516,490
1145726,498,522,504
1145742,514,509,498
1145757,509,505,502
1145773,478,506,485
1145789,515,510,481
1145805,496,501,522
1145821,509,515,503
1145836,496,510,474
1145852,491,511,460
1145868,511,518,484
1145884,502,488,525
1145900,510,505,523
1145916,511,513,506
1145931,488,511,419
1145947,510,503,413
1145963,481,510,288
1145979,462,498,414
1145995,453,514,411
1146011,451,505,364
1146026,470,504,449
1146042,501,544,476
1146058,389,510,411
1146074,423,504,356
1146090,465,516,362
1146105,510,515,406
1146121,495,513,359
1146137,450,497,467
1146153,481,501,503
1146169,537,508,440
1146185,495,503,485
1146200,503,513,463
1146216,512,512,488
1146232,504,518,493
1146248,511,503,495
1146264,505,513,487
1146279,532,505,463
1146295,459,486,502
1146311,510,521,512
1146327,493,513,423
1146343,458,494,397
1146358,387,495,372
1146374,450,457,376
1146390,396,478,279
1146406,404,516,323
1146422,363,517,366
1146438,416,510,414
1146453,347,469,304
1146469,274,438,285
1146485,345,488,301
1146501,309,402,293
1146517,249,382,185
1146533,254,354,227
1146548,192,350,161
1146564,174,341,227
1146580,185,338,206
1146596,161,333,215
1146612,185,342,246
1146627,248,374,241
1146643,266,453,239
1146659,270,359,253
1146675,187,351,256
1146691,142,398,347
1146707,354,509,310
1146722,414,512,424
1146738,416,503,356
1146754,495,510,437
1146770,499,511,413
1146786,510,515,396
1146802,459,508,357
1146817,481,505,415
1146833,492,514,412
1146849,507,497,458
1146865,511,518,449
1146881,492,511,459
1146896,522,506,439
1146912,474,493,494
1146928,497,506,439
1146944,455,511,444
1146960,425,499,413
1146976,356,511,397
1146991,477,509,442
1147007,496,516,469
1147023,465,511,443
1147039,379,477,473
1147055,400,487,379
1147071,462,499,475
1147086,505,511,511
1147102,513,518,532
1147118,513,510,507
1147134,512,511,482
1147150,513,508,454
1147165,510,514,487
1147181,511,495,559
1147197,508,511,514
1147213,506,512,517
1147229,523,512,495
1147245,493,526,488
1147260,517,525,445
1147276,447,483,470
1147292,502,518,446
1147308,474,526,544
1147324,503,517,444
1147339,475,513,386
1147355,449,510,434
1147371,512,510,398
1147387,472,508,456
1147403,461,506,460
1147419,494,510,443
1147434,488,511,444
1147450,506,514,458
1147466,425,518,504
1147482,502,506,476
1147498,493,509,433
1147514,480,515,436
1147529,485,506,427
1147545,398,505,337
1147561,357,398,301
1147577,257,421,290
1147593,234,401,330
1147608,282,498,307
1147624,213,473,271
1147640,330,507,333
1147656,323,410,272
1147672,260,454,302
1147688,220,389,313
1147703,200,408,223
1147719,311,463,234
1147735,251,363,258
1147751,265,332,273
1147767,188,328,324
1147783,218,339,297
1147798,171,346,240
1147814,234,360,261
1147830,208,390,294
1147846,258,387,299
1147862,276,444,288
1147878,251,512,291
1147916,271,480,304
1147926,330,482,392
1147936,317,489,341
1147946,436,451,373
1147957,417,509,409
1147972,495,505,451
1147988,552,505,422
1148072,485,502,468
1148083,480,509,418
1148093,504,499,446
1148104,507,516,433
1148114,499,505,478
1148126,465,510,507
1148136,517,514,481
1148147,512,522,475
1148158,467,510,425
1148168,486,505,337
1148179,481,517,437
1148189,457,484,434
1148200,413,506,420
1148293,423,490,426
1148303,404,516,348
1148313,480,516,444
1148323,463,509,443
1148333,460,504,509
1148343,504,509,494
1148353,512,510,532
1148363,513,493,481
1148373,513,517,415
1148383,489,508,527
1148393,510,512,455
1148403,491,503,539
1148414,507,497,552
1148424,504,514,474
1148434,453,520,505
1148447,438,512,433
1148463,471,486,383
1148479,287,506,327
1148494,286,511,313
1148510,417,510,343
1148526,457,513,414
1148542,459,508,481
1148558,437,512,461
1148574,510,516,473
1148589,496,510,490
1148605,528,510,492
1148621,495,515,505
1148637,512,525,510
1148653,508,512,495
1148668,456,515,452
1148684,481,513,457
1148700,431,514,498
1148716,477,512,435
1148732,489,491,423
1148748,452,493,415
1148763,426,508,339
1148779,351,445,388
1148795,386,451,314
1148811,321,413,376
1148827,344,475,375
1148843,397,475,383
1148858,396,504,428
1148874,282,466,387
1148890,248,465,284
1148906,240,369,248
1148922,221,366,231
1148937,184,317,266
1148953,115,295,243
1148969,207,356,220
1148985,190,315,242
1149001,123,368,210
1149017,237,422,201
1149032,282,341,221
1149048,156,327,223
1149064,174,347,248
1149080,183,405,207
1149096,142,423,264
1149111,231,488,266
1149127,339,492,243
1149143,390,511,341
1149159,409,510,453
1149175,503,513,467
1149191,564,512,474
1149206,492,499,512
1149222,505,525,514
1149238,502,515,469
1149254,514,514,489
1149270,495,511,510
1149285,466,504,511
1149301,514,509,503
1149317,522,506,482
1149333,494,518,507
1149349,543,512,493
1149365,508,503,505
1149380,469,513,434
1149396,499,521,439
1149412,508,511,470
1149428,509,501,500
1149444,494,512,465
1149459,498,507,458
1149475,496,504,478
1149491,505,509,484
1149507,489,517,443
1149523,509,493,451
1149539,512,498,478
1149554,511,507,495
1149570,511,489,553
1149586,506,505,492
1149602,511,510,466
1149618,509,514,506
1149634,510,507,527
1149649,506,512,510
1149665,474,514,504
1149681,517,518,499
1149697,395,468,438
1149713,396,524,424
1149728,450,513,455
1149744,455,513,468
1149760,462,506,392
1149776,435,515,443
1149792,448,499,475
1149808,357,398,327
1149823,262,367,281
1149839,299,502,272
1149855,402,504,358
1149871,448,485,397
1149887,457,505,449
1149903,481,497,462
1149918,518,512,431
1149934,464,512,373
1149950,307,484,278
1149966,265,368,247
1149982,337,484,247
1149997,356,413,267
1150013,419,453,401
1150029,340,450,353
1150045,296,501,360
1150061,188,356,289
1150077,152,257,204
1150092,132,323,239
1150108,150,276,213
1150124,148,301,150
1150140,227,334,200
1150156,330,441,394
1150171,487,499,455
1150187,509,487,503
1150203,509,508,479
1150219,506,517,471
1150235,480,507,481
1150251,518,505,495
1150266,490,505,368
1150282,493,496,482
1150298,483,515,492
1150314,396,513,459
1150330,508,544,426
1150345,511,505,388
1150361,491,509,385
1150377,486,503,455
1150393,536,507,463
1150409,491,514,477
1150425,484,521,366
1150440,491,512,467
1150456,501,499,505
1150472,503,514,496
1150488,517,513,507
1150504,477,515,482
1150519,519,508,514
1150535,557,512,489
1150551,505,516,488
1150567,509,512,477
1150583,514,494,504
1150599,508,506,510
1150614,496,503,522
1150630,487,517,482
1150646,494,484,490
1150662,512,502,471
1150678,449,501,455
1150694,504,516,516
1150709,511,508,468
1150725,510,512,502
1150741,497,513,467
1150757,508,507,475
1150773,513,510,482
1150788,490,525,443
1150804,465,504,480
1150820,449,513,356
1150836,441,501,389
1150852,500,524,393
1150868,349,485,382
1150883,288,447,302
1150899,212,496,285
1150915,226,404,280
1150931,352,451,306
1151041,389,497,356
1151051,462,510,404
1151061,481,511,478
1151071,510,510,510
1151081,503,508,451
1151177,470,493,479
1151187,484,515,450
1151198,509,509,498
1151209,511,510,484
1151220,501,518,489
1151295,500,516,504
1151305,467,509,454
1151315,506,515,452
1151325,283,384,264
1151335,285,366,269
1151345,245,419,248
1151355,371,449,278
1151365,362,378,262
1151375,380,482,321
1151385,428,485,341
1151395,387,435,346
1151405,264,456,310
1151415,393,420,318
1151425,240,385,311
1151435,292,462,280
1151445,244,491,251
1151455,437,528,391
1151465,500,504,496
1151475,511,516,464
1151485,509,503,444
1151495,514,495,514
1151505,515,501,430
1151515,483,499,476
1151525,420,516,384
1151535,482,516,487
1151545,505,512,492
1151555,475,503,464
1151565,520,499,481
1151575,538,489,542
1151585,501,515,471
1151595,481,519,502
1151605,504,510,513
1151615,530,508,521
1151627,503,511,502
1151643,496,507,513
1151659,508,513,482
1151674,508,514,444
1151690,492,512,502
1151706,510,521,510
1151722,546,503,513
1151738,521,510,510
1151754,452,504,507
1151769,495,480,455
1151785,427,497,368
1151801,509,474,372
1151817,467,463,378
1151833,502,502,419
1151848,478,511,398
1151864,496,521,484
1151880,466,508,483
1151896,436,502,388
1151912,333,447,414
1151928,293,392,375
1151943,294,478,334
1151959,312,366,212
1151975,250,350,270
1151991,278,457,325
1152007,266,438,378
1152023,245,426,209
1152038,246,393,216
1152054,226,374,254
1152070,140,335,225
1152086,160,367,238
1152102,242,337,200
1152117,163,331,233
1152133,197,372,190
1152149,241,359,301
1152165,268,479,264
1152181,316,490,391
1152197,387,504,386
1152212,501,509,452
1152228,487,513,404
1152244,489,512,491
1152260,479,512,446
1152276,469,508,447
1152291,505,511,464
1152307,499,508,447
1152323,504,539,470
1152339,506,519,489
1152355,490,499,464
1152371,553,512,460
1152386,508,506,386
1152402,477,457,361
1152418,459,481,359
1152434,481,481,362
1152450,500,514,407
1152465,513,513,459
1152481,512,515,473
1152497,506,520,506
1152513,491,513,504
1152529,497,509,489
1152545,509,501,483
1152561,511,511,469
1152576,511,513,482
1152592,511,504,470
1152608,510,504,505
1152624,512,502,490
1152639,507,504,495
1152655,480,509,513
1152671,507,501,476
1152687,427,501,423
1152703,464,506,411
1152719,507,498,446
1152734,465,500,447
1152750,421,505,366
1152766,396,507,445
1152782,411,516,433
1152798,489,513,433
1152813,467,514,479
1152829,542,492,484
1152845,501,514,478
1152861,497,520,469
1152877,509,515,454
1152893,417,520,479
1152908,460,511,507
1152924,509,514,482
1152940,505,505,470
1152956,505,458,476
1152972,461,506,448
1152988,300,399,314
1153003,209,316,293
1153019,222,366,311
1153035,257,487,325
1153051,339,502,419
1153067,208,502,396
1153082,378,456,370
1153098,298,444,352
1153114,240,391,336
1153130,259,372,303
1153146,239,439,327
1153162,314,440,314
1153177,198,464,339
1153193,305,453,368
1153209,402,502,418
1153225,346,493,361
1153241,320,446,352
1153256,297,464,251
1153272,249,340,244
1153288,308,385,331
1153304,368,413,339
1153320,200,486,339
1153336,213,362,258
1153351,266,352,291
1153367,303,431,320
1153383,446,493,388
1153399,469,507,450
1153415,495,510,443
1153430,547,513,480
1153446,502,507,516
1153462,472,513,493
1153478,496,518,506
1153494,474,513,485
1153510,512,510,508
1153525,505,503,482
1153541,475,522,502
1153557,447,502,509
1153573,439,512,453
1153589,267,493,320
1153605,299,462,334
1153620,418,509,385
1153636,477,510,445
1153652,466,496,460
1153668,484,506,429
1153684,499,496,382
1153699,420,460,297
1153715,277,490,277
1153731,309,499,319
1153747,303,435,273
1153763,382,494,456
1153779,372,509,495
1153794,457,537,488
1153810,405,519,427
1153826,421,517,419
1153842,443,457,339
1153858,381,505,395
1153873,352,424,269
1153889,206,313,285
1153905,185,332,259
1153921,200,284,209
1153937,181,320,321
1153953,213,402,252
1153968,342,383,339
1153984,352,453,318
1154000,404,488,403
1154016,438,503,338
1154032,473,511,451
1154047,375,520,459
1154063,387,516,380
1154079,460,510,364
1154095,473,442,376
1154111,445,464,307
1154178,498,515,440
1154188,485,516,382
1154199,325,477,376
1154209,289,340,268
1154219,336,339,253
1154230,377,409,277
1154240,424,497,253
1154250,345,517,291
1154261,362,507,303
1154364,402,493,321
1154374,318,434,264
1154384,326,411,302
1154394,236,369,297
1154406,180,395,335
1154416,313,471,327
1154426,452,494,402
1154524,488,518,517
1154534,505,516,469
1154544,481,516,475
1154554,508,519,495
1154564,479,516,500
1154574,502,512,434
1154584,483,519,489
1154594,458,484,486
1154604,495,494,433
1154614,528,514,460
1154624,483,524,506
1154634,501,509,512
1154644,496,511,497
1154654,491,515,464
1154664,504,512,490
1154674,525,510,506
1154684,535,511,514
1154694,500,500,497
1154704,508,523,509
1154714,513,517,503
1154724,501,521,507
1154734,530,505,508
1154744,493,510,503
1154754,540,516,496
1154764,525,508,512
1154777,458,514,450
1154791,430,500,453
1154807,446,481,446
1154823,475,508,389
1154838,403,515,382
1154854,476,522,368
1154870,507,523,481
1154886,422,498,360
1154902,290,464,366
1154918,198,361,261
1154933,192,393,248
1154949,221,368,272
1154965,220,378,242
1154981,193,334,248
1154997,308,398,235
1155013,333,418,352
1155028,404,458,296
1155044,365,500,363
1155060,280,427,293
1155076,210,298,837
1155092,304,447,264
1155107,282,423,244
1155123,274,344,256
1155139,296,338,221
1155155,298,338,234
1155171,291,447,423
1155187,322,505,402
1155202,317,508,446
1155218,344,511,373
1155234,495,472,347
1155250,453,506,358
1155266,501,499,415
1155281,488,502,472
1155297,504,499,503
1155313,524,516,483
1155329,552,509,490
1155345,513,497,500
1155361,518,504,504
1155376,558,512,470
1155392,406,522,327
1155408,432,514,376
1155424,501,526,390
1155440,507,508,460
1155455,508,511,480
1155471,506,510,506
1155487,487,508,501
1155503,445,511,495
1155519,502,503,497
1155535,512,516,439
1155550,508,511,485
1155566,510,505,482
1155582,500,507,491
1155598,512,477,546
1155614,512,508,511
1155629,515,502,505
1155645,485,516,475
1155661,531,505,489
1155677,504,513,342
1155693,355,479,467
1155709,357,499,248
1155724,325,465,323
1155740,288,425,358
1155756,339,487,343
1155772,299,470,245
1155788,322,504,296
1155804,424,504,359
1155819,350,506,342
1155835,408,472,417
1155851,447,501,486
1155867,504,511,434
1155883,504,518,487
1155898,494,517,496
1155914,511,492,490
1155930,503,515,491
1155946,509,496,468
1155962,540,509,410
1155978,387,479,400
1155993,273,381,328
1156009,299,439,367
1156025,393,503,276
1156041,325,506,309
1156057,361,485,408
1156072,375,506,413
1156088,311,437,400
1156104,273,416,357
1156120,233,425,312
1156136,261,429,340
1156152,385,461,245
1156167,325,440,317
1156183,440,473,383
1156199,431,521,399
1156215,382,504,494
1156231,318,465,350
1156246,236,443,819
1156262,263,358,253
1156278,288,376,685
1156294,298,342,326
1156310,321,329,296
1156326,265,359,349
1156341,187,508,393
1156357,357,456,348
1156373,440,517,429
1156389,431,513,407
1156405,442,513,418
1156420,551,511,486
1156436,491,522,484
1156452,504,505,515
1156468,503,510,505
1156484,509,521,504
1156500,455,512,510
1156515,528,510,509
1156531,481,489,511
1156547,539,506,512
1156563,448,524,512
1156579,518,503,485
1156594,512,526,460
1156610,505,517,481
1156626,477,523,500
1156642,504,513,512
1156658,482,512,504
1156674,504,520,517
1156689,500,511,529
1156705,496,510,491
1156721,509,512,465
1156737,493,509,504
1156753,508,508,514
1156768,511,521,484
1156784,511,510,421
1156800,481,517,505
1156816,507,508,488
1156832,507,518,483
1156848,508,514,513
1156863,508,510,514
1156879,512,519,498
1156895,542,496,507
1156911,495,496,492
1156927,485,507,475
1156942,508,515,514
1156958,515,512,436
1156974,484,512,445
1156990,482,520,487
1157006,522,511,512
1157022,560,511,449
1157037,508,516,487
1157053,504,505,469
1157069,508,513,505
1157085,514,505,499
1157101,493,515,506
1157117,500,496,508
1157132,507,505,509
1157148,504,513,513
1157164,526,498,483
1157180,249,392,363
1157196,166,331,231
1157211,243,377,350
1157303,327,461,341
1157313,348,500,441
1157323,358,497,404
1157333,373,487,317
1157343,286,425,361
1157353,211,340,301
1157363,226,458,264
1157373,175,382,271
1157384,214,451,257
1157455,274,444,258
1157465,344,438,329
1157475,347,488,309
1157485,327,493,449
1157496,393,499,390
1157506,362,407,336
1157517,214,364,285
1157527,132,306,176
1157537,221,315,207
1157547,119,307,215
1157608,276,339,692
1157618,175,332,258
1157628,259,474,324
1157638,360,503,364
1157648,472,512,425
1157658,512,511,498
1157668,512,511,465
1157678,473,517,445
1157688,464,506,458
1157698,508,509,488
1157708,510,514,483
1157718,505,506,508
1157728,509,513,503
1157738,480,534,501
1157749,511,503,515
1157765,451,520,488
1157781,506,511,501
1157797,492,497,383
1157813,497,495,434
1157828,501,518,466
1157844,506,518,444
1157860,515,515,490
1157876,503,505,492
1157892,511,509,469
1157907,510,513,466
1157923,512,515,527
1157939,475,513,491
1157955,507,520,486
1157971,504,510,511
1157987,510,512,499
1158002,512,517,548
1158018,515,493,524
1158034,503,513,532
1158050,470,509,511
1158066,505,513,442
1158082,457,408,344
1158097,274,493,409
1158113,250,464,371
1158129,244,507,342
1158145,262,503,346
1158161,291,480,405
1158176,324,442,394
1158192,385,475,437
1158208,274,495,355
1158224,383,510,361
1158240,522,505,370
1158256,493,502,326
1158271,473,499,451
1158287,503,520,479
1158303,508,513,469
1158319,515,488,453
1158335,506,508,485
1158350,460,505,482
1158366,438,447,495
1158382,484,513,463
1158398,379,506,415
1158414,370,507,340
1158430,315,483,396
1158445,385,515,364
1158461,373,514,378
1158477,301,427,376
1158493,428,502,400
1158509,451,519,423
1158524,406,433,472
1158540,387,444,348
1158556,464,497,385
1158572,331,512,392
1158588,463,509,457
1158604,499,507,504
1158619,510,517,460
1158635,512,513,509
1158651,494,516,466
1158667,506,509,495
1158683,499,488,513
1158698,508,509,510
1158714,506,497,500
1158730,501,515,909
1158746,503,469,409
1158762,512,513,452
1158778,512,517,490
1158793,508,500,441
1158809,465,512,478
1158825,526,509,501
1158841,549,513,513
1158857,499,517,519
1158873,497,513,516
1158888,509,508,506
1158904,495,524,512
1158920,502,508,506
1158936,519,504,476
1158952,516,513,506
1158967,509,509,512
1158983,516,514,511
1158999,502,497,496
1159015,521,518,479
1159031,490,528,455
1159047,497,511,463
1159062,490,521,493
1159078,477,496,453
1159094,498,509,508
1159110,512,510,498
1159126,403,507,450
1159142,269,507,348
1159157,352,416,296
1159173,256,351,325
1159189,251,445,336
1159205,343,455,352
1159221,277,405,282
1159236,199,396,352
1159252,142,358,252
1159268,160,295,237
1159284,166,261,246
1159300,133,286,547
1159316,139,261,216
1159331,160,282,215
1159347,157,270,259
1159363,162,395,270
1159379,267,453,245
1159395,304,448,257
1159410,332,498,348
1159426,368,510,385
1159442,536,511,461
1159458,494,508,499
1159474,505,506,511
1159490,508,517,509
1159505,517,511,483
1159521,496,519,502
1159537,508,518,510
1159553,544,515,491
1159569,482,508,489
1159584,424,515,496
1159600,477,509,505
1159616,490,501,445
1159632,510,515,465
1159648,491,504,498
1159664,506,510,480
1159679,513,507,514
1159695,482,510,514
1159711,509,506,510
1159727,507,513,503
1159743,480,509,469
1159758,484,504,518
1159774,509,503,528
1159790,511,520,484
1159806,507,509,487
1159822,512,507,479
1159838,511,513,493
1159853,507,511,511
1159869,491,515,522
1159885,450,521,400
1159901,389,486,416
1159917,302,511,331
1159933,197,478,279
1159948,160,395,264
1159964,206,443,325
1159980,247,466,283
1159996,316,474,349
1160012,315,508,423
1160027,418,511,463
1160043,502,514,504
1160059,453,505,489
1160075,483,502,498
1160091,510,515,475
1160107,513,515,494
1160122,538,519,469
1160138,497,493,506
1160154,521,497,454
1160170,506,511,504
1160186,459,508,455
1160201,484,514,311
1160217,372,493,352
1160233,300,518,460
1160249,398,490,456
1160265,423,505,465
1160281,412,509,458
1160296,451,514,494
1160312,405,472,349
1160328,313,481,353
1160344,304,443,421
1160360,435,450,393
1160423,293,359,280
1160433,276,369,284
1160443,182,408,271
1160453,146,414,262
1160463,208,370,237
1160473,156,357,266
1160483,191,301,251
1160493,228,316,306
1160503,167,367,260
1160518,193,431,287
1160534,224,388,312
1160577,238,382,262
1160587,336,473,268
1160597,465,480,334
1160607,486,495,425
1160617,478,512,508
1160629,491,509,507
1160644,521,514,503
1160660,500,508,490
1160676,508,520,509
1160805,508,513,489
1160815,490,513,499
1160825,505,507,491
1160835,487,490,510
1160845,485,498,496
1160855,465,520,473
1160865,505,505,416
1160875,475,517,375
1160885,451,510,410
1160896,499,504,452
1160906,468,480,484
1160917,471,500,494
1160927,507,509,517
1160937,477,514,498
1160947,502,505,464
1160957,484,513,476
1160967,470,510,498
1160977,491,511,505
1160987,497,511,442
1160997,497,511,502
1161008,501,511,495
1161024,476,493,491
1161040,501,514,513
1161056,408,441,343
1161072,298,462,284
1161087,189,476,299
1161103,215,410,249
1161119,196,380,353
1161135,228,399,253
1161151,142,310,245
1161167,214,341,310
1161182,193,474,296
1161198,349,500,414
1161214,474,509,429
1161230,491,511,499
1161246,502,514,424
1161261,495,511,446
1161277,506,508,484
1161293,514,515,505
1161309,490,514,505
1161325,511,510,475
1161341,437,503,438
1161356,442,505,461
1161372,487,516,490
1161388,469,505,368
1161404,431,499,369
1161420,217,380,275
1161435,227,326,268
1161451,293,423,293
1161467,314,432,341
1161483,439,502,386
1161499,373,515,378
1161515,286,447,310
1161530,286,431,350
1161546,272,370,306
1161562,142,301,200
1161578,181,358,276
1161594,316,488,355
1161609,486,513,517
1161625,507,505,572
1161641,510,520,521
1161657,507,516,489
1161673,215,421,307
1161689,226,426,424
1161704,256,480,349
1161720,225,499,450
1161736,412,528,381
1161752,465,530,465
1161768,512,522,490
1161784,516,500,433
1161799,506,511,504
1161815,492,510,523
1161831,482,509,506
1161847,524,513,503
1161863,500,495,515
1161878,508,514,522
1161894,511,506,502
1161910,508,505,512
1161926,503,509,511
1161942,515,509,514
1161958,472,516,501
1161973,469,513,512
1161989,508,512,511
1162005,429,511,493
1162021,463,510,468
1162037,515,507,471
1162053,487,508,470
1162068,502,519,507
1162084,482,510,484
1162100,490,511,492
1162116,510,519,508
1162132,513,515,463
1162147,481,469,514
1162163,503,509,505
1162179,474,512,450
1162195,487,511,438
1162211,510,514,485
1162227,511,533,443
1162242,502,512,448
1162258,466,513,478
1162274,417,512,389
1162290,297,414,321
1162306,191,329,227
1162321,188,333,227
1162337,200,344,305
1162353,209,336,313
1162369,182,352,320
1162385,251,452,335
1162401,251,446,305
1162416,370,494,472
1162432,477,507,493
1162448,486,512,496
1162464,494,506,474
1162480,512,507,454
1162495,455,516,464
1162511,503,512,500
1162527,493,517,459
1162543,497,509,479
1162559,513,503,505
1162575,516,505,474
1162590,496,465,467
1162606,380,502,375
1162622,371,497,283
1162638,428,509,420
1162654,422,463,420
1162669,378,493,467
1162685,461,481,483
1162701,458,515,441
1162717,392,521,462
1162733,404,488,407
1162749,271,443,331
1162764,303,459,500
1162780,468,505,479
1162796,506,509,486
1162812,506,509,484
1162828,513,510,487
1162844,513,511,508
1162859,511,508,532
1162875,507,510,420
1162891,489,511,398
1162907,480,509,490
1162923,502,500,491
1162938,486,492,500
1162954,500,492,916
1162970,506,517,443
1162986,511,522,489
1163002,484,515,511
1163018,490,512,508
1163033,494,515,512
1163049,505,511,512
1163065,512,513,483
1163081,511,503,505
1163097,512,515,512
1163113,515,528,508
1163128,499,511,511
1163144,515,519,500
1163160,518,512,474
1163176,487,511,507
1163192,516,514,495
1163207,451,507,482
1163223,487,485,438
1163239,523,507,492
1163255,484,501,477
1163271,492,529,486
1163287,472,491,501
1163302,507,507,493
1163318,464,513,516
1163334,477,512,421
1163350,421,483,370
1163366,366,516,437
1163444,356,488,317
1163455,329,451,279
1163465,310,427,262
1163475,285,472,353
1163548,292,432,297
1163558,171,390,266
1163568,167,324,210
1163578,119,377,228
1163589,144,318,269
1163599,184,300,241
1163609,141,279,253
1163619,78,338,553
1163629,174,302,258
1163639,184,306,216
1163725,218,367,314
1163735,200,446,285
1163745,194,500,459
1163756,347,506,425
1163767,508,512,450
1163777,494,492,499
1163787,507,513,504
1163797,513,516,505
1163807,506,507,510
1163819,508,501,511
1163829,524,508,503
1163839,510,515,514
1163849,518,505,505
1163859,512,496,476
1163869,541,504,507
1163879,496,506,464
1163889,514,503,494
1163899,500,516,528
1163909,505,519,489
1163919,510,509,494
1163929,511,513,520
1163939,497,512,497
1163951,499,518,499
1163967,496,519,518
1163983,495,509,536
1163998,496,511,509
1164014,507,505,486
1164030,509,513,517
1164046,509,516,583
1164062,513,517,548
1164078,510,511,464
1164093,336,451,429
1164109,221,383,321
1164125,280,414,287
1164141,221,480,334
1164157,366,490,418
1164172,307,508,362
1164188,320,478,405
1164204,222,519,368
1164220,336,415,309
1164236,410,392,403
1164252,422,494,406
1164267,493,509,434
1164283,485,513,430
1164299,482,502,460
1164315,479,513,461
1164331,478,496,470
1164347,481,510,499
1164362,444,511,489
1164378,444,510,465
1164394,457,486,434
1164410,435,495,418
1164426,403,509,475
1164441,187,360,367
1164457,209,327,244
1164473,170,330,209
1164489,279,484,309
1164505,353,508,322
1164521,417,516,448
1164536,368,482,466
1164552,417,508,476
1164568,420,495,383
1164584,485,499,386
1164600,510,504,479
1164615,493,506,477
1164631,492,514,500
1164647,510,510,495
1164663,505,508,463
1164679,512,507,510
1164695,476,515,491
1164710,483,504,470
1164726,480,506,573
1164742,499,511,479
1164758,518,520,493
1164774,504,510,441
1164789,480,501,519
1164805,498,518,485
1164821,510,509,472
1164837,507,515,512
1164853,505,512,510
1164869,466,512,511
1164884,510,511,514
1164900,488,509,504
1164916,506,498,492
1164932,512,511,474
1164948,503,513,508
1164964,502,498,496
1164979,480,520,497
1164995,484,511,511
1165011,489,519,512
1165027,466,509,420
1165043,262,339,266
1165058,206,367,288
1165074,125,304,203
1165090,347,478,460
1165106,373,506,439
1165122,397,512,443
1165138,476,514,460
1165153,461,511,421
1165169,466,515,462
1165185,386,506,480
1165201,336,491,425
1165217,288,411,262
1165232,169,375,268
1165248,239,424,398
1165264,232,481,383
1165280,261,505,415
1165296,339,475,469
1165312,278,425,299
1165327,261,368,256
1165343,229,431,293
1165359,407,495,456
1165375,369,511,446
1165391,361,415,343
1165406,405,505,328
1165422,423,507,355
1165438,399,500,405
1165454,431,506,482
1165470,455,511,444
1165486,463,518,452
1165501,483,499,438
1165517,497,515,506
1165533,511,521,486
1165549,495,509,488
1165565,501,510,491
1165580,491,499,509
1165596,442,506,510
1165612,490,509,505
1165628,350,426,334
1165644,178,462,305
1165660,231,480,331
1165675,307,452,341
1165691,403,506,400
1165707,486,515,456
1165723,509,516,512
1165739,513,504,503
1165755,493,521,463
1165770,498,512,460
1165786,509,510,548
1165802,509,512,451
1165818,510,511,486
1165834,510,498,501
1165849,511,511,513
1165865,508,513,564
1165881,513,508,500
1165897,500,515,510
1165913,502,487,472
1165929,481,507,477
1165944,516,493,508
1165960,492,491,499
1165976,484,503,507
1165992,509,510,562
1166008,501,519,500
1166024,512,511,462
1166039,500,510,464
1166055,381,511,480
1166071,483,509,492
1166087,496,509,466
1166103,480,513,507
1166118,506,511,496
1166134,512,513,509
1166150,469,508,512
1166166,511,514,469
1166182,451,508,501
1166198,480,496,502
1166213,147,362,260
1166229,144,292,206
1166244,87,270,216
1166261,146,305,247
1166277,176,298,194
1166291,85,330,185
1166308,157,343,244
1166324,153,309,267
1166340,147,477,350
1166451,147,491,302
1166462,262,502,400
1166473,353,485,453
1166483,425,496,458
1166494,401,481,314
1166504,339,499,317
1166514,372,489,381
1166605,288,507,450
1166615,377,495,464
1166625,391,498,340
1166636,275,515,392
1166646,303,506,310
1166656,186,323,274
1166666,162,314,237
1166840,193,381,304
1166851,154,427,363
1166861,253,503,269
1166871,339,484,442
1166881,448,509,456
1166891,466,501,493
1166902,504,512,475
1166912,492,510,465
1166922,490,508,509
1166932,509,514,507
1166942,490,521,495
1166952,502,513,466
1166962,513,510,449
1166972,528,508,464
1166982,514,512,510
1166992,431,504,464
1167002,478,509,493
1167012,267,366,297
1167022,142,310,233
1167032,164,305,221
1167042,206,316,276
1167052,156,465,382
1167062,191,510,462
1167072,453,512,475
1167082,465,485,471
1167092,454,507,487
1167103,505,516,505
1167113,511,509,497
1167124,510,510,475
1167134,512,503,470
1167144,511,510,487
1167154,510,506,466
1167165,512,519,506
1167176,512,511,516
1167187,529,524,510
1167197,486,511,507
1167208,506,512,452
1167218,454,503,419
1167228,489,493,422
1167238,510,522,454
1167248,511,507,530
1167258,509,507,420
1167268,509,514,486
1167278,474,511,489
1167288,567,513,476
1167298,489,508,518
1167308,505,508,502
1167321,510,504,442
1167337,508,502,501
1167352,485,512,504
1167368,509,526,475
1167384,515,505,490
1167400,542,505,485
1167416,501,502,492
1167432,395,509,399
1167447,242,444,360
1167463,258,436,297
1167479,357,508,385
1167495,443,512,371
1167511,427,516,342
1167526,397,439,376
1167542,337,466,305
1167558,277,472,286
1167574,332,454,300
1167590,317,442,294
1167606,282,461,367
1167621,337,457,289
1167637,400,490,316
1167653,297,443,303
1167669,253,415,317
1167685,207,374,511
1167700,152,289,208
1167716,128,282,204
1167732,207,310,197
1167748,175,323,263
1167764,222,301,291
1167780,232,401,240
1167795,238,390,316
1167811,253,402,285
1167827,281,456,263
1167843,384,506,340
1167859,487,493,462
1167875,507,509,483
1167890,503,511,510
1167906,472,507,489
1167922,507,515,508
1167938,511,499,510
1167954,492,511,512
1167969,486,517,501
1167985,453,514,512
1168001,493,510,462
1168017,487,499,498
1168033,520,504,502
1168049,380,469,336
1168064,356,510,392
1168080,478,513,474
1168096,505,513,484
1168112,510,498,510
1168128,513,510,479
1168143,493,497,492
1168159,510,509,539
1168175,512,506,516
1168191,505,512,476
1168207,511,511,481
1168223,510,483,529
1168238,510,508,483
1168254,511,514,539
1168270,511,516,500
1168286,510,526,479
1168302,508,515,453
1168317,461,514,452
1168333,155,342,258
1168349,155,433,296
1168365,174,419,447
1168381,283,442,268
1168397,340,496,322
1168412,329,404,473
1168428,357,485,352
1168444,477,508,385
1168460,473,512,380
1168476,489,515,303
1168491,431,451,338
1168507,430,475,482
1168523,474,503,482
1168539,499,513,470
1168555,395,513,470
1168571,491,514,441
1168586,528,499,484
1168602,445,499,432
1168618,424,481,385
1168634,240,383,295
1168650,137,277,224
1168664,96,274,197
1168681,192,298,238
1168697,152,256,191
1168713,160,259,194
1168729,165,281,229
1168745,151,318,279
1168760,197,364,353
1168776,174,402,324
1168792,254,477,373
1168808,398,506,436
1168824,494,509,492
1168839,451,511,476
1168855,503,510,424
1168871,508,512,517
1168887,498,509,533
1168903,512,511,502
1168919,479,502,491
1168934,518,509,507
1168950,489,500,499
1168966,511,494,478
1168982,482,510,517
1168998,481,519,507
1169014,491,522,480
1169029,491,513,494
1169045,506,513,508
1169061,496,512,510
1169077,549,516,481
1169093,486,508,499
1169108,501,514,504
1169124,509,510,511
1169140,514,512,481
1169156,515,511,505
1169172,507,507,494
1169188,473,522,512
1169203,499,517,512
1169219,513,522,475
1169235,510,507,475
1169251,508,516,463
1169267,377,522,389
1169282,365,494,431
1169298,227,459,367
1169314,171,363,276
1169330,131,369,212
1169346,194,364,228
1169362,118,353,239
1169377,164,287,213
1169810,9,317
1169820,354,515,344
1169830,291,483,406
1169840,309,409,308
1169850,266,440,280
1169860,240,382,344
1169870,190,362,242
1169881,227,478,298
1170079,6,495
1170089,76
1170099,
1170109,498,503,511
1170119,5,510,467
1170129,499,506,494
1170139,481,436,494
1170150,385,477,349
1170161,444,508,484
1170171,441,495,446
1170182,483,458,447
1170193,490,493,475
1170204,512,503,482
1170214,498,514,494
1170224,512,513,514
1170235,508,508,496
1170418,491
1170428,459,508,506
1170438,395,508,398
1170449,87,488,422
1170459,372,485,310
1170469,243,449,420
1170479,262,382,296
1170491,349,464,477
1170501,391,467,446
1170511,485,509,292
1170521,475,510,411
1170531,506,512,405
1170541,483,508,460
1170551,504,502,455
1170561,470,486,492
1170571,489,506,432
1170581,475,503,490
1170591,504,516,473
1170601,471,481,475
1170611,479,501,489
1170621,508,497,492
1170631,337,499,344
1170641,99,324,235
1170651,174,315,264
1170661,153,272,192
1170671,109,273,203
1170681,164,312,248
1170691,138,369,290
1170701,156,337,247
1170711,234,369,249
1170721,375,483,392
1170731,492,521,463
1170741,511,512,546
1170751,510,506,528
1170761,511,519,528
1170771,494,523,439
1170781,492,506,450
1170791,508,506,504
1170801,512,513,505
1170811,513,515,512
1170821,509,506,509
1170831,537,522,496
1170841,509,506,512
1170851,515,512,492
1170861,449,506,495
1170871,453,510,537
1170881,501,512,461
1170891,503,507,498
1170901,486,510,437
1170911,497,511,466
1170921,502,516,510
1170931,452,514,510
1170941,505,493,511
1170951,510,522,509
1170961,502,505,510
1170975,508,503,498
1170991,499,500,455
1171007,445,512,493
1171023,474,511,499
1171038,437,499,450
1171054,441,505,428
1171070,184,345,255
1171086,118,272,234
1171102,142,301,239
1171117,144,325,237
1171133,205,306,329
1171149,267,468,294
1171165,333,495,296
1171181,248,502,463
1171197,286,517,461
1171212,254,514,344
1171228,275,501,253
1171244,333,513,259
1171260,442,495,405
1171276,476,506,503
1171292,491,474,486
1171307,485,477,442
1171323,488,508,469
1171339,515,509,504
1171355,480,520,510
1171371,392,511,493
1171386,392,513,409
1171402,472,509,504
1171418,492,496,483
1171434,508,512,465
1171450,486,511,503
1171466,482,510,556
1171481,565,511,499
1171497,504,514,521
1171513,508,516,508
1171529,515,516,504
1171545,489,511,496
1171560,504,513,509
1171576,497,504,483
1171592,521,511,498
1171608,494,509,508
1171624,548,502,511
1171640,471,495,498
1171655,512,499,509
1171671,373,401,445
1171687,164,387,302
1171703,118,320,257
1171719,119,302,232
1171734,143,334,276
1171750,780,461,284
1171766,414,507,437
1171782,499,517,488
1171798,511,511,480
1171814,512,510,550
1171829,514,508,516
1171845,513,506,485
1171861,486,508,506
1171877,508,512,434
1171893,513,508,496
1171908,520,496,515
1171924,428,505,466
1171940,481,509,481
1171956,502,522,469
1171972,421,495,418
1171988,442,515,425
1172003,406,512,300
1172019,376,522,392
1172035,392,483,342
1172051,361,508,447
1172067,468,507,485
1172083,438,503,376
1172098,430,505,452
1172114,491,512,496
1172130,459,508,509
1172146,449,505,508
1172162,466,517,474
1172177,511,510,433
1172193,519,500,500
1172209,533,517,456
1172225,490,509,491
1172241,381,497,385
1172257,166,373,254
1172272,138,274,205
1172287,68,267,181
1172304,156,333,250
1172320,171,292,225
1172336,150,341,256
1172351,245,408,314
1172367,335,499,445
1172383,489,512,521
1172399,509,516,479
1172415,513,514,544
1172431,496,515,480
1172446,509,484,507
1172462,502,518,545
1172478,508,513,506
1172494,514,509,531
1172510,508,513,521
1172525,505,511,491
1172541,506,513,509
1172557,536,509,506
1172573,511,495,461
1172589,508,511,421
1172605,509,506,509
1172620,481,542,563
1172636,506,508,495
1172652,503,510,511
1172668,473,511,499
1172684,541,494,512
1172700,509,510,511
1172715,505,515,514
1172731,468,516,508
1172747,504,508,502
1172763,506,498,502
1172779,515,516,509
1172794,526,510,506
1172810,509,531,491
1172826,486,501,507
1172842,367,503,300
1172858,208,368,278
1172874,150,303,233
1172889,129,293,208
1172905,105,278,207
1172921,115,294,241
1172937,688,350,249
1172953,148,376,268
1172967,84,263,215
1173038,163,314,257
1173048,158,378,262
1173058,193,375,361
1173068,198,361,214
1173078,196,455,323
1173088,307,497,429
1173098,290,437,378
1173109,328,487,309
1173119,303,515,449
1173130,375,513,436
1173143,366,504,374
1173158,403,469,321
1173224,228,386,264
1173235,215,387,224
1173245,236,382,251
1173255,280,506,414
1173265,388,475,371
1173275,360,507,410
1173285,503,512,475
1173295,543,511,496
1173305,500,508,446
1173316,491,519,482
1173332,509,505,508
1173348,510,500,511
1173439,504,505,512
1173450,497,509,512
1173460,456,515,514
1173470,541,500,497
1173480,503,501,495
1173490,513,506,504
1173500,530,511,510
1173510,511,512,503
1173520,478,494,460
1173530,312,475,398
1173540,192,365,291
1173550,169,340,221
1173560,247,470,362
1173570,372,522,475
1173585,491,513,470
1173601,509,515,490
1173617,509,512,508
1173633,510,518,539
1173649,511,505,541
1173664,510,505,505
1173680,512,506,397
1173696,512,513,519
1173712,514,521,505
1173728,511,506,513
1173744,527,502,493
1173759,513,516,492
1173775,498,498,451
1173791,430,506,434
1173807,305,400,335
1173823,244,351,283
1173838,306,416,263
1173854,332,486,336
1173870,302,467,330
1173886,378,504,306
1173902,476,501,434
1173918,467,508,414
1173933,485,417,409
1173949,482,477,472
1173965,460,510,467
1173981,503,514,482
1173997,390,528,488
1174013,431,498,433
1174028,417,482,443
1174044,352,481,325
1174060,337,491,243
1174076,221,398,265
1174092,175,330,215
1174107,135,277,215
1174123,123,253,195
1174139,108,282,205
1174155,134,301,209
1174171,133,275,190
1174187,718,291,222
1174202,393,475,386
1174218,443,504,498
1174234,506,520,489
1174250,497,525,495
1174266,491,505,560
1174281,508,522,512
1174297,498,508,494
1174313,509,514,516
1174329,507,506,513
1174345,501,506,503
1174361,498,515,508
1174376,529,502,510
1174392,515,512,514
1174408,462,510,480
1174424,497,517,502
1174440,509,509,487
1174455,489,514,516
1174471,511,509,509
1174487,550,513,496
1174503,498,520,482
1174519,501,514,510
1174535,516,454,497
1174550,507,501,471
1174566,497,498,505
1174582,517,505,498
1174598,467,491,503
1174614,503,528,509
1174630,425,503,477
1174645,510,527,412
1174661,313,513,375
1174677,154,291,224
1174693,667,324,210
1174708,89,279,190
1174724,171,325,256
1174740,147,308,229
1174756,112,283,201
1174772,160,350,235
1174788,200,338,273
1174803,266,432,290
1174819,287,379,269
1174835,338,431,278
1174851,344,513,340
1174867,343,507,398
1174883,420,495,321
1174898,389,507,285
1174914,374,461,424
1174930,428,501,405
1174946,455,506,475
1174962,358,503,455
1174977,253,415,355
1174993,143,350,728
1175009,239,413,276
1175025,376,442,442
1175041,441,499,511
1175057,474,514,489
1175072,483,511,509
1175088,497,511,486
1175104,540,511,501
1175120,503,521,510
1175136,514,510,493
1175152,497,507,507
1175167,512,514,509
1175183,498,502,489
1175199,512,508,509
1175215,504,512,509
1175231,496,506,510
1175246,516,522,506
1175262,511,508,482
1175278,480,511,445
1175294,390,497,465
1175310,236,459,270
1175326,201,418,264
1175341,174,484,310
1175357,333,510,340
1175373,481,494,435
1175389,490,507,493
1175405,509,514,488
1175420,503,506,478
1175436,511,513,522
1175452,511,503,506
1175468,486,509,578
1175484,509,507,524
1175500,484,506,508
1175515,513,507,513
1175531,506,516,511
1175547,518,504,506
1175563,502,501,472
1175579,373,518,399
1175594,286,395,320
1175610,214,370,250
1175626,272,394,330
1175642,369,461,461
1175658,377,504,424
1175674,463,481,471
1175689,520,507,483
1175705,460,508,501
1175721,499,502,512
1175737,503,499,498
1175753,507,520,475
1175769,507,509,505
1175784,505,519,454
1175800,486,493,488
1175816,527,515,465
1175832,421,484,453
1175848,356,520,389
1175863,321,475,304
1175879,215,357,195
1175895,145,281,229
1175911,145,289,180
1175927,182,229,232
1175943,193,264,216
1175958,138,283,213
1175974,168,271,230
1175990,690,305,190
1176006,314,465,375
1176022,487,496,492
1176037,510,507,462
1176074,512,513,499
1176084,512,535,445
1176094,511,508,501
1176105,515,514,511
1176117,511,508,512
1176132,511,505,505
1176148,496,512,505
1176195,489,502,500
1176205,500,535,471
1176216,498,491,520
1176226,446,517,524
1176236,483,506,491
1176247,504,518,513
1176259,487,513,507
1176399,497,510,513
1176409,566,513,502
1176419,501,510,515
1176429,491,517,505
1176439,511,509,502
1176449,506,522,508
1176459,522,514,509
1176469,520,521,513
1176479,543,506,511
1176489,535,517,505
1176499,533,507,497
1176509,505,479,497
1176519,442,505,372
1176529,286,370,362
1176539,150,299,244
1176549,64,257,169
1176559,134,268,232
1176569,98,316,308
1176579,226,383,310
1176589,287,438,301
1176599,284,498,340
1176609,291,505,443
1176623,277,417,352
1176639,162,369,279
1176654,302,345,277
1176670,298,458,258
1176686,274,484,310
1176702,218,473,416
1176718,300,467,455
1176733,409,449,394
1176749,400,481,391
1176765,393,504,341
1176781,347,463,328
1176797,300,363,247
1176813,256,375,316
1176828,326,467,261
1176844,414,508,348
1176860,423,508,354
1176876,402,510,397
1176892,532,506,472
1176907,490,504,495
1176923,490,513,472
1176939,509,503,502
1176955,502,508,510
1176971,487,485,453
1176987,510,499,442
1177002,502,473,376
1177018,490,520,479
1177034,405,502,413
1177050,282,505,408
1177066,197,386,284
1177080,98,295,212
1177097,154,289,238
1177113,116,264,211
1177129,134,278,238
1177144,79,272,257
1177160,208,294,280
1177176,223,388,287
1177192,335,501,300
1177208,478,487,423
1177224,489,522,503
1177240,460,513,482
1177255,445,510,500
1177271,484,514,539
1177287,508,506,536
1177303,509,517,497
1177319,506,510,514
1177334,520,512,510
1177350,475,522,512
1177366,528,510,506
1177382,506,519,438
1177398,501,506,509
1177414,509,515,506
1177429,509,511,498
1177445,503,512,480
1177461,493,512,514
1177477,520,510,504
1177493,532,512,503
1177509,505,503,509
1177524,475,530,509
1177540,509,495,509
1177556,505,507,510
1177572,500,495,510
1177588,536,544,510
1177603,543,491,491
1177619,540,496,507
1177635,521,493,505
1177651,488,509,497
1177667,206,346,243
1177683,181,312,198
1177698,139,296,236
1177714,109,282,191
1177730,134,347,240
1177746,226,482,298
1177762,284,442,292
1177778,361,475,433
1177793,244,508,497
1177809,233,459,411
1177825,333,473,430
1177841,413,504,348
1177857,407,507,398
1177872,375,513,393
1177888,420,509,322
1177904,383,483,350
1177920,354,507,389
1177936,344,508,444
1177952,361,446,367
1177967,279,520,260
1177983,171,331,217
1177999,172,308,292
1178015,257,392,249
1178031,324,469,332
1178046,250,484,300
1178062,395,509,450
1178078,381,491,468
1178094,563,508,423
1178110,487,506,435
1178126,463,517,457
1178141,485,511,444
1178157,469,508,504
1178173,476,505,511
1178189,504,518,501
1178205,475,495,512
1178221,497,494,497
1178236,516,500,444
1178252,419,516,322
1178268,223,317,242
1178284,135,296,209
1178300,113,287,248
1178315,105,334,275
1178331,168,288,248
1178347,148,327,394
1178363,245,409,434
1178379,406,506,506
1178395,490,526,501
1178410,509,503,549
1178426,511,514,483
1178442,514,501,474
1178458,514,528,464
1178474,512,506,506
1178489,509,513,503
1178505,516,508,475
1178521,500,510,495
1178537,525,508,517
1178553,515,514,509
1178569,529,516,846
1178584,532,493,424
1178600,493,496,507
1178616,483,515,500
1178632,512,503,493
1178648,508,512,511
1178663,511,514,514
1178679,495,508,515
1178695,552,510,488
1178711,488,518,513
1178727,503,507,520
1178743,512,516,517
1178758,507,502,510
1178774,495,519,507
1178790,507,506,507
1178806,473,508,486
1178822,477,514,499
1178838,487,513,494
1178853,496,511,506
1178869,381,505,436
1178885,141,276,253
1178901,125,286,220
1178917,117,339,209
1178931,72,263,169
1178948,161,333,256
1178964,140,334,251
1178980,173,433,269
1178996,231,482,402
1179011,324,433,396
1179027,336,479,352
1179043,339,449,387
1179059,372,511,356
1179115,340,512,263
1179125,316,479,308
1179136,420,505,482
1179146,354,495,464
1179156,373,511,375
1179167,302,408,288
1179177,191,323,185
1179188,191,359,282
1179201,218,432,286
1179217,274,492,359
1179233,310,495,522
1179249,318,485,403
1179265,397,505,355
1179373,374,487,335
1179383,490,503,379
1179393,443,518,416
1179403,443,508,469
1179413,477,517,464
1179423,506,500,506
1179433,492,513,490
1179443,515,509,472
1179453,516,507,452
1179463,519,531,494
1179473,477,507,484
1179483,427,518,375
1179493,259,365,302
1179503,193,356,223
1179513,134,358,331
1179523,358,470,263
1179534,472,501,467
1179549,370,513,479
1179802,495,510,480
1179812,510,513,502
1179822,512,509,499
1179832,512,512,469
1179842,514,511,488
1179852,514,505,477
1179862,511,504,501
1179872,505,505,482
1179882,499,519,450
1179892,507,507,515
1179902,511,512,510
1179912,506,516,512
1179922,500,510,508
1179932,492,512,474
1179942,441,509,505
1179952,428,513,473
1179963,388,504,390
1179973,478,480,378
1179983,509,511,452
1179993,506,507,503
1180004,478,511,513
1180014,515,497,485
1180024,495,512,485
1180034,497,516,514
1180044,507,508,513
1180054,509,505,509
1180064,502,504,509
1180074,486,521,473
1180084,473,523,475
1180094,400,522,437
1180106,434,512,492
1180116,467,492,349
1180127,390,456,323
1180138,133,326,213
1180148,139,280,200
1180158,147,288,252
1180169,114,279,242
1180179,111,304,234
1180189,102,316,285
1180199,100,292,233
1180209,112,315,262
1180219,201,384,274
1180230,325,424,271
1180245,402,447,412
1180261,461,511,487
1180277,431,515,484
1180293,500,505,512
1180309,514,509,472
1180325,514,511,473
1180340,513,516,513
1180356,513,508,508
1180372,498,504,508
1180388,506,497,532
1180404,510,511,460
1180419,504,505,489
1180435,519,523,506
1180451,513,505,521
1180467,466,505,466
1180483,465,513,477
1180499,517,509,507
1180514,552,502,511
1180530,483,506,517
1180546,502,515,516
1180562,512,507,508
1180578,508,507,497
1180594,495,517,509
1180609,518,505,496
1180625,500,505,508
1180641,570,513,514
1180657,473,494,510
1180673,524,511,492
1180688,508,489,392
1180704,214,470,275
1180720,183,359,299
1180736,182,346,242
1180752,180,389,292
1180768,162,439,271
1180783,135,388,256
1180799,110,348,274
1180815,121,348,257
1180831,227,418,257
1180847,210,412,364
1180862,238,405,282
1180878,228,512,290
1180894,368,494,423
1180910,388,481,485
1180926,350,474,249
1180942,334,498,425
1180957,392,515,450
1180973,332,504,408
1180989,364,505,329
1181005,423,503,437
1181021,391,459,443
1181036,343,458,389
1181052,399,477,288
1181068,465,498,474
1181084,435,501,507
1181100,431,475,382
1181116,488,507,421
1181131,441,519,411
1181147,390,521,432
1181163,459,503,469
1181179,479,510,495
1181195,496,507,508
1181210,390,456,448
1181226,448,454,502
1181242,415,494,467
1181258,401,509,369
1181274,310,472,318
1181290,287,360,355
1181305,163,236,221
1181321,122,328,240
1181337,126,274,213
1181353,107,306,238
1181369,109,417,321
1181384,127,387,338
1181400,281,482,307
1181416,455,502,549
1181432,499,509,537
1181448,510,515,468
1181464,511,520,546
1181479,488,508,495
1181495,510,513,473
1181511,510,512,539
1181527,510,500,523
1181543,512,525,509
1181559,520,511,517
1181574,488,532,504
1181590,513,515,504
1181606,487,511,494
1181622,508,504,487
1181638,492,509,430
1181653,513,517,422
1181669,467,513,502
1181685,495,505,500
1181701,518,511,486
1181717,525,512,496
1181733,492,506,517
1181748,495,517,513
1181764,508,516,490
1181780,510,512,508
1181796,497,516,512
1181812,528,510,499
1181828,493,501,503
1181843,518,503,510
1181859,484,491,406
1181875,434,520,321
1181891,272,260,261
1181907,146,280,219
1181921,80,272,228
1181938,158,342,228
1181954,103,270,203
1181970,102,322,227
1181986,170,350,250
1182001,260,355,369
1182017,302,415,408
1182033,306,376,348
1182049,338,425,434
1182065,305,432,340
1182081,340,518,473
1182096,429,464,502
1182112,474,501,381
1182128,452,489,318
1182144,477,502,443
1182160,476,505,471
1182175,453,503,347
1182191,401,516,389
1182207,415,516,494
1182223,450,481,454
1182239,493,495,458
1182255,485,507,440
1182270,506,504,507
1182286,508,513,502
1182302,495,511,518
1182318,527,510,509
1182334,538,515,504
1182350,502,517,521
1182365,499,505,510
1182381,508,509,508
1182397,491,510,509
1182413,501,517,506
1182429,447,539,514
1182444,476,522,509
1182460,478,514,495
1182476,506,526,490
1182492,510,511,504
1182508,509,511,503
1182524,505,531,512
1182539,508,507,504
1182555,512,514,505
1182571,511,518,480
1182587,476,514,478
1182603,441,493,480
1182619,503,507,497
1182634,511,518,476
1182650,512,518,535
1182666,476,511,447
1182682,508,520,456
1182698,511,511,529
1182713,497,493,539
1182729,508,500,493
1182745,511,505,472
1182761,469,507,420
1182777,444,507,481
1182793,306,503,416
1182808,400,510,365
1182824,364,484,393
1182840,192,396,346
1182856,198,367,309
1182872,166,458,383
1182887,351,503,438
1182903,446,510,361
1182919,509,511,382
1182935,526,500,436
1182951,480,507,471
1182967,496,518,471
1182982,511,515,494
1182998,494,510,506
1183014,514,508,507
1183030,528,494,469
1183046,549,511,507
1183061,477,519,488
1183077,494,497,321
1183093,310,492,285
1183109,211,345,257
1183125,128,322,244
1183141,133,296,222
1183156,119,289,186
1183172,101,361,265
1183188,175,460,439
1183204,365,504,456
1183220,492,503,498
1183235,486,518,489
1183251,492,513,498
1183267,510,506,465
1183283,502,511,548
1183299,509,510,584
1183315,494,515,560
1183330,510,500,536
1183346,514,516,471
1183362,513,506,517
1183378,521,513,504
1183394,511,521,509
1183409,510,501,509
1183525,525,503,514
1183535,512,516,503
1183545,395,462,451
1183555,430,516,524
1183565,502,514,476
1183575,500,511,501
1183716,504,497,518
1183726,532,507,497
1183736,508,517,515
1183746,504,514,516
1183756,485,504,508
1183766,507,507,510
1183776,499,521,491
1183786,499,516,509
1183796,458,521,509
1183806,490,509,513
1183816,480,506,500
1183942,500,522,470
1183952,266,354,330
1183962,168,277,282
1183972,162,265,268
1183982,125,274,203
1183992,54,263,216
1184002,190,278,240
1184012,159,288,270
1184022,162,372,324
1184032,237,461,323
1184042,288,505,359
1184052,285,487,398
1184062,343,491,484
1184072,401,488,403
1184082,403,512,389
1184093,497,507,477
1184104,419,477,282
1184114,349,482,351
1184126,463,504,425
1184139,337,423,397
1184149,362,497,316
1184159,352,505,440
1184170,375,523,276
1184182,385,388,253
1184192,107,353,181
1184203,241,464,318
1184213,429,505,429
1184223,492,511,501
1184233,516,513,484
1184243,508,518,513
1184253,496,521,517
1184263,516,526,512
1184273,497,511,443
1184283,498,510,500
1184293,493,520,507
1184303,442,511,512
1184313,538,527,504
1184323,532,507,495
1184333,526,508,508
1184343,505,520,509
1184353,497,515,512
1184363,361,516,304
1184373,188,323,248
1184383,166,334,259
1184393,746,336,256
1184406,119,310,243
1184422,132,336,307
1184438,197,492,256
1184454,437,508,456
1184469,502,510,532
1184485,506,521,516
1184501,511,514,507
1184517,512,502,475
1184533,496,503,501
1184548,512,510,498
1184564,475,492,490
1184580,386,490,304
1184596,380,527,286
1184612,447,504,420
1184628,426,509,390
1184643,376,499,430
1184659,375,520,447
1184675,456,509,498
1184691,492,509,401
1184707,353,511,392
1184722,376,509,478
1184738,549,513,369
1184754,499,504,463
1184770,505,481,457
1184786,510,495,489
1184802,497,516,464
1184817,455,520,456
1184833,428,514,461
1184849,411,512,339
1184865,377,518,446
1184881,311,441,336
1184896,204,348,212
1184912,113,297,190
1184928,125,292,208
1184944,100,329,211
1184959,79,308,197
1184975,142,301,259
1184991,140,269,236
1185006,95,254,238
1185023,172,333,228
1185039,154,369,265
1185055,354,494,417
1185070,487,505,520
1185086,509,518,513
1185102,511,496,547
1185118,503,517,531
1185134,491,488,560
1185149,509,506,530
1185165,511,514,473
1185181,544,509,496
1185197,487,523,511
1185213,512,500,512
1185229,495,499,512
1185244,506,501,513
1185260,510,507,497
1185276,507,513,497
1185292,488,508,499
1185308,480,515,488
1185323,484,510,506
1185339,550,513,494
1185355,487,513,507
1185371,509,524,515
1185387,510,521,510
1185403,490,508,498
1185418,513,501,507
1185434,490,529,489
1185450,524,509,507
1185466,506,518,510
1185482,517,510,495
1185498,503,515,475
1185513,367,522,383
1185529,573,450,291
1185545,164,380,188
1185561,100,340,252
1185577,185,318,224
1185592,129,304,243
1185608,144,273,232
1185624,108,266,269
1185640,130,303,267
1185656,167,389,282
1185672,245,455,304
1185687,230,467,300
1185703,308,436,309
1185719,310,460,417
1185735,334,505,304
1185751,435,517,259
1185766,387,516,460
1185782,351,501,272
1185798,372,436,347
1185814,410,483,359
1185830,423,431,432
1185846,424,487,337
1185861,364,485,286
1185877,389,490,494
1185893,426,503,312
1185909,497,508,437
1185925,501,508,445
1185940,490,477,501
1185956,508,504,458
1185972,504,504,505
1185988,500,508,513
1186004,493,501,511
1186020,513,513,510
1186035,531,511,511
1186051,540,503,513
1186067,530,513,497
1186083,498,502,512
1186099,499,512,498
1186115,272,322,297
1186130,132,314,252
1186146,139,322,237
1186162,160,375,231
1186178,173,341,229
1186194,156,387,286
1186209,200,491,428
1186225,467,504,370
1186241,506,526,475
1186257,511,513,506
1186273,510,512,558
1186289,477,499,522
1186304,503,518,428
1186320,503,514,493
1186336,510,501,511
1186352,512,517,521
1186368,518,473,511
1186383,499,502,499
1186399,516,506,509
1186415,503,510,508
1186431,524,519,499
1186447,457,504,521
1186463,506,519,488
1186478,508,515,494
1186494,508,504,511
1186510,514,507,470
1186526,514,511,471
1186542,514,516,505
1186558,513,510,493
1186573,501,521,509
1186589,499,506,469
1186605,508,506,429
1186621,504,514,451
1186637,512,501,505
1186652,507,526,480
1186668,490,525,498
1186684,485,510,387
1186770,334,510,423
1186780,168,270,202
1186790,114,299,206
1186800,148,275,234
1186810,124,239,256
1186820,88,268,232
1186830,146,325,286
1186841,158,303,248
1186851,256,338,279
1186861,220,380,399
1186920,243,457,297
1186930,264,437,390
1186940,374,488,470
1186950,354,500,331
1186960,385,511,396
1186970,394,508,466
1186980,368,517,334
1186990,434,513,405
1187000,502,507,467
1187010,460,504,490
1187020,522,519,496
1187032,506,505,501
1187048,512,513,540
1187148,477,503,431
1187159,500,511,487
1187169,427,509,518
1187180,494,510,518
1187190,512,510,508
1187200,512,512,490
1187210,507,507,517
1187220,510,511,513
1187231,517,504,506
1187241,491,510,503
1187251,496,513,501
1187261,518,525,509
1187271,489,507,507
1187281,521,495,501
1187291,502,512,507
1187301,502,483,511
1187317,508,517,482
1187333,443,516,371
1187349,283,375,384
1187364,145,275,276
1187380,130,321,255
1187396,177,323,239
1187412,139,323,227
1187428,110,350,230
1187443,147,404,360
1187459,280,405,438
1187475,346,506,320
1187491,360,504,517
1187507,338,512,441
1187523,293,509,282
1187538,409,482,266
1187554,450,480,384
1187570,425,506,329
1187586,420,502,472
1187602,337,513,407
1187618,336,481,404
1187633,375,505,318
1187649,398,407,463
1187665,421,399,301
1187681,420,492,395
1187697,396,508,367
1187712,437,512,403
1187728,427,510,438
1187744,509,509,463
1187760,478,504,490
1187776,483,518,497
1187792,499,518,477
1187807,502,504,461
1187823,503,513,483
1187839,499,512,493
1187855,483,520,499
1187871,484,495,474
1187886,496,522,484
1187902,478,463,431
1187918,448,343,269
1187934,111,291,188
1187950,117,276,217
1187966,104,289,246
1187981,157,348,276
1187997,133,437,409
1188013,235,500,349
1188029,475,503,471
1188045,507,510,483
1188060,513,498,482
1188076,491,515,530
1188092,510,501,545
1188108,510,468,547
1188124,513,511,513
1188140,509,508,521
1188155,501,515,509
1188171,505,512,516
1188187,486,512,486
1188203,497,507,483
1188219,508,537,487
1188234,496,513,509
1188250,497,500,488
1188266,501,520,496
1188282,459,495,500
1188298,449,508,495
1188314,487,513,474
1188329,497,506,485
1188345,562,510,480
1188361,505,497,501
1188377,501,518,517
1188393,506,513,513
1188409,504,508,510
1188424,502,512,511
1188440,512,523,488
1188456,530,504,482
1188472,506,514,494
1188488,480,509,403
1188503,439,514,483
1188519,374,506,280
1188535,272,322,211
1188551,160,283,204
1188567,105,271,244
1188581,93,243,240
1188598,149,296,247
1188614,141,276,224
1188629,81,278,235
1188646,125,305,272
1188662,145,303,259
1188677,166,339,276
1188693,136,401,291
1188709,363,534,490
1188725,491,521,516
1188741,508,515,518
1188756,475,518,527
1188772,493,520,487
1188788,509,521,520
1188804,502,513,511
1188820,499,500,500
1188836,488,513,496
1188851,506,505,500
1188867,509,516,535
1188883,513,506,406
1188899,508,511,499
1188915,508,511,511
1188930,510,513,481
1188946,530,512,504
1188962,507,517,502
1188978,504,510,516
1188994,517,513,512
1189010,502,509,510
1189025,491,510,509
1189041,469,519,508
1189057,528,526,515
1189073,532,512,515
1189089,519,520,498
1189105,508,505,510
1189120,510,512,488
1189136,426,481,427
1189152,165,315,243
1189167,90,281,236
1189184,199,392,265
1189199,218,465,310
1189215,255,453,245
1189231,284,413,354
1189247,245,388,307
1189263,236,415,339
1189278,284,450,282
1189294,250,441,361
1189310,270,527,350
1189326,251,439,317
1189342,304,372,245
1189358,268,388,327
1189373,300,437,240
1189389,362,484,452
1189405,383,496,478
1189421,363,484,302
1189437,248,406,241
1189452,157,305,235
1189468,121,377,277
1189484,212,407,220
1189500,306,475,285
1189516,405,496,411
1189532,421,508,363
1189547,485,445,386
1189563,512,510,470
1189579,511,506,479
1189595,514,518,485
1189611,506,514,505
1189627,504,511,512
1189642,497,504,505
1189658,531,480,514
1189674,554,532,518
1189690,471,507,506
1189706,523,513,494
1189721,445,485,461
1189737,424,507,484
1189753,327,512,321
1189769,239,495,428
1189785,316,467,353
1189801,249,506,357
1189816,473,508,436
1189832,458,514,417
1189848,457,493,399
1189864,505,492,468
1189984,513,518,489
1189994,502,510,546
1190004,510,518,538
1190014,509,506,409
1190024,512,487,461
1190034,491,509,459
1190044,485,515,518
1190054,487,507,501
1190064,493,513,509
1190074,522,514,462
1190084,505,508,472
1190095,497,506,474
1190105,378,454,343
1190116,340,495,469
1190127,438,511,381
1190137,430,509,419
1190148,493,509,484
1190159,469,512,465
1190169,498,511,417
1190205,410,504,444
1190215,478,486,447
1190226,505,514,484
1190237,501,517,451
1190248,507,499,480
1190259,378,491,482
1190275,347,504,366
1190291,326,500,360
1190307,302,477,389
