48338,8,453
48348,52
48358,360,623,450
48368,314,633,452
48378,308,154,447
48388,328,468,449
48398,327,241,455
48408,300,364,453
48418,309,235,453
48428,672,618,455
48441,316,437,449
48451,692,283,448
48461,319,385,454
48471,309,366,451
48481,420,460,453
48491,479,211,450
48501,340,657,453
48511,313,630,452
48521,569,589,452
48531,322,555,452
48541,333,584,448
48551,376,569,458
48561,347,257,453
48571,293,605,452
48581,333,427,454
48591,317,600,459
48601,338,607,454
48611,338,594,453
48621,586,428,455
48631,316,171,456
48641,723,585,457
48651,329,284,455
48661,325,311,455
48671,367,463,454
48681,578,620,459
48691,345,613,458
48701,516,622,454
48711,302,607,449
48721,307,247,459
48731,305,356,458
48741,307,546,455
48751,720,628,453
48761,375,608,459
48771,291,366,461
48781,489,625,456
48791,425,534,461
48801,335,596,457
48811,458,378,452
48821,333,376,462
48831,317,418,456
48841,444,188,457
48851,465,300,457
48861,305,554,460
48871,296,619,464
48881,314,487,463
48891,332,598,460
48906,366,364,460
48922,338,571,458
48938,712,633,458
48954,306,616,461
48970,311,492,464
48985,315,524,462
49001,341,557,463
49017,329,648,457
49033,329,611,461
49049,331,428,460
49064,347,626,459
49080,339,626,462
49096,331,655,461
49112,329,579,456
49128,373,533,462
49144,306,611,461
49159,494,451,465
49175,449,635,459
49191,383,620,461
49207,337,311,462
49223,345,368,460
49238,649,285,459
49254,335,335,457
49270,345,621,460
49286,362,298,459
49302,321,626,458
49318,347,270,458
49333,335,621,459
49349,344,602,458
49365,351,282,454
49381,368,603,455
49397,318,457,457
49412,320,429,461
49428,306,457,460
49444,384,326,455
49460,309,605,459
49476,347,437,459
49491,362,282,458
49507,286,287,460
49523,304,286,460
49539,363,409,461
49555,351,355,466
49571,473,359,459
49586,340,636,456
49602,330,263,461
49618,332,399,460
49634,303,260,456
49650,708,460,458
49665,350,572,459
49681,713,489,461
49697,309,569,456
49713,339,340,455
49729,309,588,456
49745,427,471,454
49760,304,629,455
49776,559,176,452
49792,313,512,455
49808,365,412,453
49824,325,468,450
49839,322,519,457
49855,630,621,452
49871,352,395,453
49887,464,597,452
49903,333,427,452
49919,335,596,450
49934,344,364,453
49950,316,535,455
49966,288,261,454
49982,308,288,455
49998,302,618,450
50013,314,342,457
50029,341,356,450
50045,292,460,451
50061,321,642,452
50077,342,376,455
50093,309,258,452
50108,589,332,451
50124,314,616,451
50140,310,252,452
50156,297,613,455
50172,327,584,449
50187,291,517,451
50203,376,383,457
50219,324,600,454
50235,326,281,454
50251,321,306,452
50267,336,443,453
50282,314,418,452
50298,330,608,455
50314,317,606,451
50330,356,433,452
50346,307,226,451
50361,315,384,451
50377,311,298,452
50393,338,475,451
50409,346,607,450
50425,352,622,451
50441,331,347,447
50456,328,289,449
50472,303,618,453
50488,316,203,456
50504,300,316,446
50520,326,443,449
50536,449,309,454
50551,321,451,459
50567,320,442,454
50583,334,635,452
50599,329,385,449
50615,334,366,454
50630,352,541,452
50646,332,603,452
50662,347,318,455
50678,360,633,452
50694,326,508,454
50709,306,428,455
50725,353,630,452
50741,320,499,451
50757,315,618,450
50773,327,504,456
50789,393,633,451
50804,556,615,452
50820,319,609,452
50836,347,621,453
50852,333,611,449
50868,327,316,455
50883,334,331,452
50899,320,614,455
50915,329,597,450
50931,401,603,450
50947,342,388,454
50963,329,485,451
50978,350,356,455
50994,324,606,453
51010,347,499,453
51026,362,277,451
51042,340,310,454
51057,337,630,453
51073,396,605,450
51089,317,332,452
51105,327,616,452
51121,331,622,448
51137,400,425,451
51152,681,554,452
51168,318,557,454
51184,342,221,451
51200,341,616,449
51216,456,518,454
51231,306,602,453
51247,338,386,453
51263,390,284,459
51279,563,646,454
51295,301,614,453
51311,383,626,450
51326,437,635,453
51342,412,237,454
51358,269,332,451
51374,567,470,453
51390,355,379,451
51405,321,634,451
51421,299,503,455
51437,315,628,455
51453,340,549,452
51469,306,615,455
51485,328,422,454
51500,320,415,447
51516,312,270,448
51532,340,528,450
51548,344,492,454
51564,322,404,456
51579,361,544,454
51595,343,284,452
51611,656,342,450
51627,358,403,451
51643,386,423,452
51659,333,259,450
51674,298,393,450
51690,592,363,454
51706,307,614,449
51722,334,624,454
51738,304,220,450
51754,336,618,453
51769,702,543,457
51785,299,291,455
51801,306,296,448
51817,572,631,452
51833,443,443,454
51848,354,318,452
51864,721,570,449
51880,331,453,451
51896,337,551,450
51912,550,604,451
51928,429,349,453
51943,310,602,457
51959,292,266,454
51975,666,622,453
51991,329,515,459
52007,336,373,450
52022,318,609,451
52038,344,620,452
52054,734,525,451
52070,331,349,451
52086,359,512,448
52102,332,310,456
52117,398,312,459
52133,327,224,451
52149,580,614,458
52165,411,619,460
52181,435,406,457
52196,359,612,453
52212,318,232,452
52228,321,572,451
52244,320,610,452
52260,341,420,454
52276,442,258,454
52291,409,595,451
52307,285,409,449
52323,327,595,455
52339,441,400,453
52355,307,202,456
52370,357,623,455
52386,309,559,450
52402,316,616,458
52418,314,596,455
52434,735,327,452
52450,318,387,450
52465,339,596,455
52481,417,355,453
52497,598,562,456
52513,640,614,454
52529,500,612,458
52544,305,431,457
52560,592,536,458
52576,576,477,469
52592,331,393,459
52608,446,606,454
52624,327,334,452
52639,355,478,450
52655,390,395,450
52671,317,358,456
52687,314,269,448
52703,325,618,451
52718,361,346,451
52734,312,349,454
52750,339,348,448
52766,337,505,451
52782,734,633,451
52798,334,608,445
52813,335,320,449
52829,317,262,449
52845,443,611,444
52861,288,460,448
52877,326,551,453
52892,523,469,446
52908,307,622,448
52924,348,643,445
52940,324,438,447
52956,349,348,451
52972,312,615,448
52987,387,618,452
53003,494,596,452
53019,683,463,447
53035,322,646,447
53051,330,622,449
53066,695,296,453
53082,303,627,454
53098,322,611,449
53114,426,345,447
53130,626,503,450
53146,328,486,451
53161,314,160,455
53177,696,346,449
53193,341,531,444
53209,316,603,447
53225,335,576,451
53240,322,251,445
53256,339,640,446
53272,361,413,450
53288,315,639,444
53304,418,303,447
53320,420,494,444
53335,400,451,446
53351,354,631,451
53367,313,610,444
53383,336,494,450
53399,348,330,452
53414,361,613,445
53430,338,515,447
53446,558,611,447
53462,322,337,450
53478,351,607,444
53494,355,626,443
53509,427,611,444
53525,323,609,446
53541,331,628,447
53557,392,515,450
53573,300,620,443
53588,296,527,447
53604,350,585,447
53620,328,617,454
53636,380,578,444
53652,372,274,445
53668,298,260,444
53683,363,254,448
53699,306,632,449
53715,356,256,445
53731,337,603,444
53747,325,275,441
53762,332,288,445
53778,315,365,445
53794,311,619,443
53810,333,306,444
53826,406,586,447
53842,506,628,445
53857,363,346,445
53873,333,254,442
53889,276,170,449
53905,318,614,447
53921,316,558,447
53936,321,618,441
53952,339,616,446
53968,298,482,445
53984,328,256,448
54000,308,629,447
54015,393,313,446
54031,322,657,443
54047,327,610,443
54063,321,419,447
54079,422,637,442
54095,336,447,440
54110,360,605,451
54126,369,606,449
54142,353,203,445
54158,357,624,444
54174,549,600,439
54189,320,446,450
54205,343,525,440
54221,589,631,445
54237,485,280,447
54253,470,358,446
54269,312,577,444
54284,542,405,446
54300,391,610,444
54316,317,626,447
54332,329,570,446
54348,316,472,445
54363,340,633,440
54379,323,610,446
54395,354,630,450
54411,381,617,444
54427,385,609,446
54443,317,354,447
54458,295,611,456
54474,327,642,442
54490,318,599,445
54506,403,610,443
54522,305,391,442
54537,506,499,440
54553,587,491,447
54569,529,382,446
54585,316,488,441
54601,671,591,447
54617,318,520,446
54632,438,516,442
54648,351,449,441
54664,388,607,444
54680,375,388,445
54696,309,628,447
54711,345,548,443
54727,326,609,444
54743,351,632,445
54759,387,605,445
54775,317,155,446
54791,288,446,443
54806,631,442,442
54822,304,367,451
54838,306,240,446
54854,473,499,444
54870,300,617,449
54885,299,571,452
54901,329,375,440
54917,344,595,449
54933,306,288,443
54949,312,195,443
54965,540,640,439
54980,414,521,447
54996,324,182,445
55012,628,620,446
55028,459,638,457
55044,543,600,442
55059,379,606,447
55075,354,303,443
55091,350,618,439
55107,307,620,439
55123,424,604,441
55139,325,483,441
55154,294,386,445
55170,503,459,444
55186,328,517,441
55202,298,285,442
55218,328,406,445
55233,385,611,439
55249,467,187,440
55265,351,645,442
55281,371,324,445
55297,321,292,451
55313,312,629,438
55328,399,374,438
55344,331,622,443
55360,323,621,447
55376,349,243,435
55392,745,610,447
55407,308,611,446
55423,343,619,437
55439,394,185,440
55455,477,612,440
55471,332,437,442
55487,467,561,443
55502,674,613,437
55518,318,609,440
55534,301,620,447
55550,332,364,446
55566,323,276,452
55581,337,593,441
55597,333,417,438
55613,346,589,442
55629,482,476,438
55645,332,222,446
55660,436,449,444
55676,449,550,441
55692,318,629,439
55708,340,316,445
55724,708,523,440
55740,362,240,451
55755,300,337,442
55771,334,580,438
55787,703,618,444
55803,338,610,442
55819,426,381,441
55834,442,487,442
55850,523,522,440
55866,312,614,438
55882,629,616,443
55898,515,347,440
55914,456,494,438
55929,319,502,441
55945,322,323,439
55961,317,353,441
55977,654,505,437
55993,502,410,435
56008,315,615,441
56024,530,472,439
56040,342,539,438
56056,351,623,439
56072,349,370,437
56088,323,290,444
56103,302,610,443
56119,477,353,441
56135,314,165,437
56151,555,427,446
56167,360,435,443
56182,519,409,440
56198,350,504,440
56214,513,637,442
56230,304,594,436
56246,407,394,443
56262,338,354,437
56277,454,626,437
56293,304,611,444
56309,292,558,437
56325,325,614,441
56341,350,190,440
56357,326,280,438
56372,335,618,449
56388,345,609,441
56404,324,473,435
56420,339,520,440
56436,354,619,446
56451,358,629,439
56467,320,523,435
56483,326,610,434
56499,548,297,435
56515,476,628,429
56531,335,601,442
56546,332,471,436
56562,336,368,433
56578,338,256,437
56594,314,619,431
56610,335,429,436
56625,327,293,435
56641,307,392,439
56657,324,203,442
56673,314,429,436
56689,573,611,436
56705,315,620,434
56720,295,617,438
56736,405,604,438
56752,317,628,446
56768,306,498,440
56784,343,629,440
56799,345,353,448
56815,546,521,439
56831,468,544,436
56847,316,556,442
56863,362,563,440
56879,385,633,437
56894,537,597,431
56910,346,349,442
56926,305,643,440
56942,443,531,438
56958,324,624,443
293135,5,276
293145,514,478,251
293155,481,188,241
293165,482,538,225
293175,487,328,265
293185,460,337,294
293195,507,621,264
293205,513,553,285
293215,432,628,278
293227,502,642,289
293238,496,624,273
293248,407,337,274
293258,498,635,293
293268,506,236,272
293278,509,468,262
293288,505,518,259
293298,438,418,256
293308,474,596,234
293318,487,610,246
293328,401,325,263
293338,371,609,257
293348,349,655,245
293358,371,374,253
293368,607,617,230
293378,366,329,248
293388,374,643,222
293398,486,317,223
293408,372,576,234
293418,350,636,225
293428,329,235,219
293438,379,347,233
293448,458,383,235
293458,399,338,275
293468,362,430,282
293478,356,245,249
293488,522,543,238
293498,363,594,262
293508,360,580,264
293518,427,564,254
293528,394,567,211
293538,354,200,229
293548,350,405,221
293558,365,134,260
293568,354,604,257
293578,392,301,238
293588,388,625,261
293598,362,623,240
293608,376,633,251
293618,360,358,263
293628,367,526,239
293638,396,618,237
293648,523,623,225
293658,360,525,251
293668,508,359,193
293683,448,420,242
293699,513,393,245
293714,353,601,257
293730,350,594,262
293746,322,604,267
293762,527,290,229
293778,384,551,241
293794,363,590,239
293809,344,472,225
293825,354,539,252
293841,512,594,223
293857,382,609,266
293873,661,274,277
293888,339,334,252
293904,649,611,226
293920,490,527,265
293936,579,602,236
293952,566,500,259
293967,344,601,246
293983,365,459,227
293999,499,433,227
294015,352,284,253
294031,437,640,256
294047,667,513,235
294062,459,464,268
294078,480,581,228
294094,585,619,264
294110,321,631,266
294126,466,620,247
294141,319,137,262
294157,547,507,267
294173,310,631,227
294189,526,630,249
294205,612,624,254
294221,477,236,239
294236,327,643,229
294252,487,612,241
294268,597,489,239
294284,469,346,242
294300,562,625,190
294315,438,632,213
294331,530,598,220
294347,607,637,237
294363,474,590,220
294379,622,623,260
294395,329,652,255
294410,336,423,212
294425,457,96,228
294442,397,288,252
294458,377,628,247
294474,522,631,237
294489,386,346,274
294505,359,601,231
294521,546,593,235
294537,335,651,231
294553,589,412,243
294568,351,339,221
294584,411,413,210
294600,392,203,531
294616,389,397,243
294632,499,604,261
294648,352,564,229
294663,598,633,223
294679,454,630,268
294695,643,624,264
294711,650,287,275
294727,347,335,260
294742,440,629,245
294758,536,268,257
294774,489,451,239
294790,427,243,257
294806,364,620,244
294822,569,598,250
294837,383,291,236
294853,471,546,227
294869,399,495,230
294885,544,268,230
294901,459,464,212
294917,579,524,226
294932,566,329,201
294948,411,431,205
294964,381,517,208
294980,585,649,249
294996,337,388,207
295011,359,622,227
295027,573,600,201
295043,352,444,236
295059,553,155,238
295075,524,366,222
295091,342,478,234
295106,609,194,254
295122,517,337,217
295138,569,616,214
295154,441,440,225
295170,549,116,226
295185,360,611,246
295201,458,428,247
295217,524,576,266
295233,532,573,256
295249,521,598,242
295265,474,646,234
295280,425,351,224
295296,502,615,244
295312,308,625,254
295328,490,497,201
295344,595,373,254
295359,443,654,236
295375,510,477,251
295391,329,440,214
295407,521,182,248
295423,320,673,231
295439,531,474,256
295454,321,634,237
295470,608,396,254
295486,336,310,245
295502,589,318,240
295518,297,609,249
295533,616,537,216
295549,315,542,493
295565,331,339,249
295581,495,373,272
295597,410,617,248
295613,664,302,248
295628,533,623,238
295644,354,431,245
295660,345,613,254
295676,367,550,242
295692,530,167,234
295707,370,632,234
295723,679,598,267
295739,358,463,262
295755,438,287,255
295771,404,586,260
295787,592,611,228
295802,462,613,201
295818,487,524,190
295834,576,594,259
295850,493,614,207
295866,449,343,228
295881,600,614,249
295897,339,583,245
295913,342,580,236
295929,589,593,219
295945,657,527,236
295961,338,267,228
295976,480,457,264
295992,359,559,272
296008,338,595,253
296024,443,570,243
296040,333,501,234
296055,338,269,229
296071,636,573,216
296087,357,343,235
296103,614,600,274
296119,333,451,232
296135,330,633,212
296150,341,579,229
296166,392,604,208
296182,662,598,245
296198,430,585,258
296214,370,587,256
296229,362,554,256
296245,359,563,215
296261,431,521,263
296277,453,590,264
296293,487,555,293
296309,517,635,349
296324,509,533,241
296340,501,352,222
296356,485,609,258
296372,379,511,254
296388,421,655,229
296403,377,381,234
296419,632,581,224
296435,359,615,231
296451,397,583,225
296467,357,473,259
296483,364,367,262
296498,354,562,248
296514,563,600,237
296530,375,497,262
296546,349,588,221
296562,458,459,200
296577,380,606,276
296593,371,607,288
296609,673,619,266
296625,527,221,237
296641,371,616,231
296657,434,481,236
296672,372,481,268
296688,670,606,231
296704,331,562,226
296720,355,535,230
296736,350,540,247
296751,460,407,230
296767,522,554,254
296783,324,557,230
296799,422,560,262
296815,652,536,236
296831,343,595,202
296846,348,126,231
296862,488,610,256
296878,368,600,254
296894,376,455,228
296910,656,524,746
296925,602,641,270
296941,631,191,255
296957,329,610,185
296973,420,622,658
296989,581,606,202
297005,565,478,257
297020,457,434,228
297036,528,617,250
297052,458,423,275
297068,590,378,244
297084,532,594,234
297099,345,298,233
297115,324,580,244
297131,495,559,187
297147,407,552,210
297163,347,365,247
297179,421,577,233
297194,316,591,246
297210,533,441,231
297226,375,488,212
297242,594,579,237
297258,316,563,204
297273,490,571,210
297289,324,374,249
297305,481,219,266
297321,365,616,239
297337,618,402,219
297353,326,271,284
297368,439,599,251
297384,551,316,237
297400,509,616,205
297416,327,572,203
297432,351,650,265
297447,358,380,243
297463,409,290,245
297479,339,587,252
297495,584,274,229
297511,584,581,237
297527,616,595,242
297542,600,624,231
297558,327,442,237
297574,365,297,223
297590,397,566,218
297606,621,614,213
297621,378,393,225
297637,646,604,274
297653,330,493,226
297669,543,538,219
297685,370,554,266
297701,494,612,280
297716,374,215,245
297732,359,288,244
297748,491,605,247
297764,362,312,253
297780,500,425,231
297795,340,529,224
297811,376,427,234
297827,484,302,219
297843,483,545,249
297859,354,402,240
297875,353,193,263
297890,328,308,251
297906,368,304,278
297922,362,503,296
297938,363,524,266
297954,359,342,231
297969,388,536,239
297985,486,522,271
298001,494,621,231
298017,510,633,265
298033,481,617,225
298049,502,376,295
298064,496,360,308
298080,386,284,278
298096,410,626,257
298112,380,484,262
298128,375,625,262
298143,507,601,259
298159,361,227,280
298175,379,560,275
298191,385,269,277
298207,566,453,273
298223,356,603,285
298238,376,315,237
298254,371,310,239
298270,367,606,242
298286,366,452,242
298302,365,606,244
298317,365,214,267
298333,404,543,392
298349,475,460,247
298365,506,633,254
298381,507,355,248
298397,520,380,295
298412,508,493,230
298428,513,650,235
298444,478,383,271
298460,505,407,279
298476,524,486,262
298491,444,471,260
298507,383,648,249
298523,377,622,232
298539,420,467,248
298555,500,443,262
298571,495,278,252
298586,517,592,250
298602,493,611,259
298618,511,588,234
298634,513,447,266
298650,448,239,243
298665,507,641,212
298681,508,608,232
298697,453,490,217
298713,374,485,219
298729,365,242,234
298744,350,423,187
298760,373,605,266
298776,417,287,220
298792,368,652,234
298808,364,597,268
298824,355,435,231
298839,346,626,200
298855,557,634,231
298871,343,610,234
298887,420,622,237
298903,348,502,246
298919,336,635,223
298934,366,290,213
298950,367,389,214
298966,361,612,213
298982,389,307,222
298998,379,324,219
299013,376,225,215
299029,456,479,215
299045,351,611,212
299061,402,603,218
299077,483,585,237
299093,337,502,245
299108,391,614,202
299124,634,524,256
299140,351,471,236
299156,388,507,273
299172,368,344,246
299187,349,553,260
299203,344,618,218
299219,360,595,239
299235,365,133,228
299251,367,577,224
299267,361,358,235
299282,359,577,245
299298,498,571,257
299314,382,156,257
299330,518,494,235
299346,503,640,239
299361,352,226,266
299377,364,343,228
299393,630,630,232
299409,358,183,191
299425,324,274,220
299441,355,353,229
299456,344,391,211
299472,360,653,254
299488,376,548,206
299504,443,624,225
299520,378,622,211
299535,609,637,228
299551,353,245,205
299567,506,417,179
299583,353,462,212
299599,362,324,207
299615,359,594,271
299630,440,595,239
299646,356,181,223
299662,367,298,220
299678,425,495,212
299694,489,546,224
299709,489,619,246
299725,511,612,207
299741,467,464,203
299757,432,158,191
299773,463,590,239
299789,507,552,219
299804,510,382,214
299820,511,544,213
299836,507,543,284
299852,493,549,220
299868,506,194,251
299883,512,522,261
299899,515,576,267
299915,501,576,230
299931,509,529,242
299947,503,597,257
299963,494,593,190
299978,489,447,209
299994,500,612,238
300010,421,433,245
300026,430,563,232
300042,593,364,236
300057,378,593,236
300073,390,593,245
300089,397,577,209
300105,404,549,228
300121,387,564,227
300137,348,595,208
300152,375,582,238
300168,404,589,216
300184,399,268,254
300200,379,589,228
300216,346,609,219
300231,356,509,194
300247,378,297,240
300263,347,545,261
300279,359,586,226
300295,341,218,229
300311,403,440,229
300326,380,188,201
300342,385,658,195
300358,359,541,222
300374,500,320,221
300390,380,622,223
300405,361,569,241
300420,464,97,205
300437,367,612,286
300453,551,193,254
300469,381,623,247
300485,528,640,247
300500,363,646,225
300516,361,614,209
300532,368,615,237
300548,356,352,208
300564,390,405,277
300579,375,629,216
300595,385,154,214
300611,355,608,214
300627,366,435,273
300643,543,531,256
300658,402,609,226
300674,453,614,231
300690,489,374,246
300706,535,305,216
300722,484,614,233
300738,485,598,231
300753,471,411,258
300769,446,506,277
300785,503,252,219
300801,509,377,246
300817,503,302,270
300832,500,585,290
300848,510,620,265
300864,506,603,285
300880,499,585,282
300896,516,607,288
300912,514,290,261
300927,515,602,240
300943,508,368,251
300959,496,614,247
300975,507,584,265
300991,508,602,263
301007,501,626,272
301022,509,577,290
301038,473,180,266
301054,515,595,244
301070,516,433,218
301086,513,282,233
301100,516,90,249
301117,500,388,256
301133,511,370,276
301149,551,290,217
301164,397,80,209
301180,400,531,295
301196,370,616,277
301212,462,165,212
301228,454,382,219
301244,444,614,209
301259,470,582,251
301275,509,206,229
301291,510,645,196
301307,499,353,209
301323,382,320,207
303864,
303874,99,542,201
303884,41433,193
303894,373,640,203
303904,526,502,216
303914,429,542,197
303924,382,524,193
303935,460,595,223
303945,548,656,212
303955,363,174,226
303965,363,624,239
303975,470,615,252
303985,542,612,243
303995,390,163,238
304005,617,551,226
304015,325,622,236
304025,359,544,214
304035,385,441,213
304045,379,448,249
304055,354,164,177
304065,356,474,219
304075,383,374,213
304085,351,130,270
304095,379,175,245
304105,396,513,203
304115,384,593,247
304125,641,392,219
304135,322,611,222
304145,352,653,229
304155,364,465,219
304165,466,643,221
304175,491,624,244
304185,402,615,225
304195,492,631,248
304205,460,423,237
304215,495,622,247
304225,513,284,259
304235,506,352,242
304245,507,478,272
304255,509,511,256
304265,510,620,256
304275,514,604,259
304285,491,229,257
304295,484,571,258
304305,502,602,256
304315,505,562,252
304325,502,443,268
304335,519,607,250
304345,500,225,240
304355,510,603,278
304365,516,363,239
304375,424,631,254
304385,485,596,260
304395,494,601,279
304407,507,580,232
304423,461,612,294
304439,426,634,240
304454,442,359,230
304470,406,170,263
304486,419,463,247
304502,469,609,234
304518,472,283,228
304534,433,556,256
304549,486,410,219
304565,474,549,272
304581,417,123,220
304597,421,600,256
304613,396,604,260
304628,542,333,279
304644,626,440,217
304660,667,467,288
304676,537,436,247
304692,356,316,221
304708,573,654,260
304723,551,327,236
304739,343,334,215
304755,368,657,185
304771,361,555,204
304787,358,320,201
304802,366,178,203
304818,378,350,660
304834,499,421,192
304850,516,361,221
304866,389,608,222
304882,379,658,235
304897,353,195,273
304913,364,291,209
304929,633,478,239
304945,357,588,241
304961,359,280,256
304976,394,481,258
304992,614,625,240
305008,424,623,229
305024,442,632,230
305040,433,334,212
305056,434,629,259
305071,458,636,288
305087,485,672,256
305103,436,389,227
305119,435,620,241
305135,498,305,241
305150,445,300,232
305166,425,620,233
305182,429,125,248
305198,476,387,222
305214,453,482,222
305230,449,635,225
305245,475,271,182
305261,447,281,234
305277,470,562,226
305293,390,304,217
305309,427,622,231
305324,411,603,232
305340,429,525,575
305356,412,560,216
305372,485,189,219
305388,497,631,268
305404,450,257,272
305419,525,617,216
305435,407,411,225
305451,530,615,208
305467,380,368,245
305483,452,477,227
305498,492,454,245
305514,507,556,217
305530,500,560,242
305546,518,560,205
305562,510,376,246
305578,492,593,258
305593,510,587,226
305609,509,586,266
305625,466,567,290
305641,506,561,272
305657,457,573,244
305672,438,596,236
305688,426,564,226
305704,393,318,244
305720,412,463,248
305736,431,611,210
305752,427,602,208
305767,370,547,208
305783,378,599,242
305799,381,239,270
305815,418,506,209
305831,509,279,223
305846,487,617,208
305862,381,620,237
305878,404,620,220
305894,368,362,230
305910,371,192,256
305926,362,422,227
305941,385,628,214
305957,367,628,193
305973,436,656,236
305989,606,624,229
306005,365,414,213
306020,401,293,146
306036,485,102,138
306052,425,637,203
306068,389,422,250
306084,508,441,240
306100,371,442,207
306115,344,658,249
306131,327,375,218
306147,348,595,261
306163,486,541,209
306179,352,589,175
306194,463,652,579
306210,422,508,207
306226,354,521,219
306242,594,596,240
306258,355,428,216
306274,389,241,210
306289,415,446,220
306305,601,391,228
306321,437,622,218
306337,349,646,220
306353,342,304,226
306368,341,470,262
306384,478,577,260
306400,566,564,247
306416,509,565,226
306432,465,311,208
306447,326,603,241
306463,386,425,236
306479,492,303,229
306495,509,307,211
306511,514,430,240
306527,512,625,223
306542,512,469,200
306558,511,641,257
306574,501,455,253
306590,503,600,231
306606,510,606,217
306621,513,612,261
306637,504,305,227
306653,488,577,235
306669,500,597,252
306685,466,589,234
306701,495,491,216
306716,643,588,202
306732,496,574,261
306748,513,562,250
306764,492,561,274
306780,512,571,259
306795,507,368,234
306811,502,592,251
306827,506,424,257
306843,513,410,270
306859,419,515,280
306875,499,405,263
306890,508,307,242
306906,513,647,268
306922,514,602,262
306938,453,516,236
306954,439,642,198
306970,441,641,233
306985,423,625,223
307001,395,429,211
307017,493,647,236
307033,508,484,232
307049,509,303,233
307064,419,634,231
307080,487,486,244
307096,438,645,265
307112,440,161,186
307128,474,328,242
307143,489,545,254
307159,480,593,238
307175,550,383,208
307191,362,541,232
307207,453,557,203
307223,346,549,211
307238,400,538,246
307254,333,607,204
307270,336,554,225
307286,517,603,230
307302,633,377,213
307317,615,273,241
307333,596,387,218
307349,350,182,239
307365,544,655,237
307381,428,573,234
307397,423,276,224
307412,466,199,210
307428,514,291,226
307444,514,586,191
307460,505,186,251
307476,592,500,223
307491,367,217,217
307507,634,611,240
307523,405,432,227
307539,663,580,226
307555,426,565,203
307570,563,279,264
307586,373,564,266
307602,495,565,233
307618,450,563,243
307634,503,545,208
307650,516,562,251
307665,509,532,269
307681,508,536,254
307697,502,355,264
307713,505,232,238
307729,500,464,232
307744,511,482,260
307760,514,377,259
307776,501,652,188
307792,511,607,235
307808,512,527,246
307824,490,600,226
307839,495,490,267
307855,511,629,249
307871,468,634,242
307887,506,639,222
307903,508,229,233
307918,537,571,241
307934,424,461,220
307950,360,571,243
307966,430,336,242
307982,403,619,215
307998,393,488,204
308013,356,418,233
308029,332,316,235
308045,492,607,219
308061,481,606,248
308077,472,601,222
308092,484,592,240
308108,501,539,253
308124,497,555,228
308140,502,489,240
308156,498,173,250
308172,498,435,242
308187,531,555,230
308203,490,516,236
308219,500,221,254
308235,474,559,232
308251,466,607,197
308266,480,597,196
308282,618,605,219
308298,496,567,232
308314,513,538,236
308330,514,576,239
308346,464,544,238
308361,497,554,253
308377,491,303,214
308393,499,549,225
308409,508,384,226
308425,512,301,219
308440,499,418,246
308456,502,217,236
308472,473,313,258
308488,501,465,243
308504,483,586,253
308520,494,394,292
308535,506,362,258
308551,501,596,195
308567,507,554,215
308583,512,605,226
308599,519,560,226
308614,505,451,226
308630,509,604,254
308646,513,593,242
308662,502,606,242
308678,519,561,227
308694,512,558,224
308709,509,628,214
308725,517,497,254
308741,511,480,309
308757,502,230,309
308773,506,375,251
308788,509,631,237
308804,502,304,213
308820,515,172,200
308836,511,403,419
308852,508,389,270
308868,510,566,290
308883,509,378,275
308899,519,610,236
308915,500,568,194
308931,494,642,215
308947,494,415,208
308963,506,507,185
308978,507,272,211
308994,508,369,279
309010,510,636,242
309026,511,218,258
309042,507,621,247
309057,472,557,232
309073,507,228,248
309089,499,562,257
309105,500,608,239
309121,503,449,236
309136,488,336,223
309152,507,528,234
309168,512,645,231
309184,729,634,211
309200,491,634,213
309216,507,629,224
309231,520,591,211
309247,485,369,206
309263,377,474,220
309279,384,621,248
309295,494,282,204
309310,509,634,235
309326,373,521,209
309342,349,619,217
309358,373,383,228
309374,383,629,262
309390,449,631,241
309405,548,316,228
309421,601,640,230
309437,431,589,217
309453,366,554,219
309469,491,582,219
309484,498,549,212
309500,510,577,232
309516,510,361,249
309532,514,600,251
309548,492,199,255
309564,502,183,228
309579,504,205,235
309595,505,623,233
309611,501,205,216
309627,471,364,202
309643,540,635,214
309658,478,579,263
309674,503,528,219
309690,494,511,200
309706,511,572,260
309722,522,163,230
309738,490,367,244
309753,510,616,240
309769,508,445,196
309785,478,571,240
309801,516,578,261
309817,504,468,237
309832,479,633,270
309848,514,340,220
309864,497,410,238
309880,516,625,238
309896,521,361,185
309911,494,397,203
309927,514,623,239
309943,526,421,265
309959,489,663,229
309975,498,388,253
309991,510,309,238
310006,521,211,207
310022,493,537,208
310038,513,510,212
310054,513,645,274
310070,528,461,213
310085,513,628,250
310101,513,477,215
310117,495,636,205
310133,505,653,225
310149,511,443,251
310165,493,657,237
310180,493,643,215
310196,510,675,215
310212,474,479,237
310228,501,556,247
310244,501,161,251
310259,520,504,210
310275,457,381,197
310291,441,303,194
310307,424,638,216
310323,422,621,226
310339,497,651,181
310354,508,629,220
310370,501,341,197
310386,453,350,251
310402,368,618,247
310418,360,628,233
310433,386,634,250
310449,375,572,247
310465,355,306,204
310481,346,623,219
310497,376,156,249
310513,341,266,237
310528,452,569,212
310544,395,614,254
310560,412,351,246
310576,692,279,235
310592,477,363,198
310607,397,621,216
310623,411,609,241
310639,500,516,217
310655,509,351,229
310671,462,437,248
310687,505,657,271
310702,515,603,231
310718,510,394,160
310734,513,482,238
310750,506,634,228
310766,496,583,235
310781,507,377,228
310797,511,632,209
310813,509,523,205
310829,512,623,183
310845,512,305,220
310861,510,600,243
310876,507,552,256
310892,503,534,216
310908,497,371,218
310924,510,362,225
310940,503,323,210
310955,548,372,203
310971,356,456,194
310987,583,601,223
311003,333,571,232
311019,397,562,211
311035,360,594,216
311050,647,593,211
311066,481,576,210
311082,470,309,256
311098,508,349,293
311114,500,591,271
311129,510,585,252
311145,503,610,266
311161,510,584,220
311177,483,491,277
311193,507,308,251
311209,512,612,274
311224,507,444,222
311240,506,345,224
311256,483,512,223
311272,509,200,193
311288,502,582,204
311303,499,274,218
311319,514,462,227
311335,515,637,221
311351,515,595,272
311367,506,608,280
311383,513,582,271
311398,523,591,240
311414,493,550,263
311430,486,187,232
311446,501,536,242
311462,474,549,221
311477,524,615,209
311493,511,411,208
311509,502,473,245
311525,501,175,212
311541,492,441,260
311557,514,471,306
311572,505,386,225
311588,394,552,219
311604,439,553,184
311620,515,493,199
311636,498,311,237
311651,478,531,248
311667,461,611,240
311683,488,140,246
311699,499,264,215
311715,504,582,189
311731,392,572,258
311746,406,577,219
311762,473,592,246
311778,503,357,257
311794,493,524,272
311810,506,485,290
311825,434,260,260
311841,417,529,260
311857,471,578,271
311873,468,527,236
311889,506,629,240
311905,511,224,226
311920,497,391,173
311936,499,610,233
311952,509,576,256
311968,514,638,232
311984,512,315,263
311999,507,271,262
312015,510,566,202
312031,506,500,195
312047,472,593,258
317649,511,571,219
317659,511,588,227
317669,507,607,209
317682,513,273,208
317692,493,484,236
317702,587,596,217
317712,372,580,229
317722,534,583,227
317732,368,190,201
317742,433,287,212
317752,364,325,204
317762,488,178,185
317772,410,580,170
317782,533,476,211
317792,582,596,194
317802,671,576,211
317812,451,587,213
317822,384,262,195
317832,418,590,184
317842,468,523,223
317852,461,585,209
317862,495,598,217
317872,500,576,252
317882,490,599,236
317892,492,617,242
317902,504,591,244
317912,472,585,219
317922,509,572,206
317932,512,561,187
317942,511,599,230
317952,549,607,448
317962,482,584,186
317972,506,575,218
317982,512,408,254
317994,512,576,205
318010,502,501,207
318026,509,636,233
318042,509,613,257
318058,503,350,235
318073,508,611,178
318089,507,191,240
318105,505,425,270
318121,503,341,218
318137,510,496,201
318152,506,598,219
318168,511,576,184
318184,502,583,192
318200,508,200,257
318216,511,410,224
318232,513,374,201
318247,517,182,206
318263,510,522,197
318279,512,612,199
318295,513,452,209
318311,515,282,237
318326,508,449,199
318342,512,375,244
318358,511,575,251
318374,508,428,241
318390,502,627,208
318406,510,616,242
318421,511,603,228
318437,512,614,228
318453,512,582,217
318469,511,615,233
318485,474,581,242
318500,506,539,192
318516,509,464,210
318532,509,316,265
318548,502,524,254
318564,502,438,220
318580,509,513,210
318595,511,415,228
318611,512,421,216
318627,503,406,242
318643,503,623,243
318659,500,527,202
318674,601,448,234
318690,497,291,184
318706,509,234,233
318722,510,377,204
318738,441,465,220
318754,502,316,234
318769,511,637,220
318785,502,136,210
318801,507,386,273
318817,508,403,251
318833,512,454,242
318849,513,256,207
318864,510,591,198
318880,511,550,210
318896,512,613,218
318912,507,609,206
318928,507,313,199
318943,513,465,185
318959,510,602,194
318975,511,316,221
318991,514,424,211
319007,500,599,228
319023,510,556,231
319038,491,587,212
319054,506,617,202
319070,506,613,218
319086,515,536,221
319102,505,517,396
319117,510,616,197
319133,500,636,260
319149,508,446,222
319165,514,395,232
319181,512,588,188
319197,500,617,241
319212,499,351,241
319228,511,316,243
319244,508,484,215
319260,487,615,272
319276,497,625,195
319291,475,615,172
319307,502,565,198
319323,510,271,251
319339,511,415,209
319355,513,508,245
319371,509,521,196
319386,512,589,214
319402,499,344,200
319418,502,541,169
319434,511,415,214
319450,394,492,234
319465,356,520,179
319481,341,225,200
319497,365,535,200
319513,355,605,254
319529,372,468,222
319544,588,496,218
319560,600,638,209
319576,353,443,177
319592,349,640,199
319608,381,437,207
319624,673,616,208
319639,356,586,234
319655,570,573,221
319671,366,366,232
319687,344,629,237
319703,341,608,214
319718,335,607,170
319734,360,307,222
319749,339,87,219
319766,421,406,235
319782,641,635,210
319798,384,626,222
319813,533,602,225
319829,355,582,212
319845,488,566,193
319861,356,656,226
319877,642,479,212
319892,345,600,169
319908,426,565,223
319924,467,612,200
319940,541,613,234
319956,370,186,199
319972,521,550,240
319987,374,362,220
320003,547,622,194
320019,357,489,208
320035,443,626,291
320051,377,484,217
320066,349,431,202
320082,354,614,228
320098,354,291,226
320114,429,656,176
320130,682,367,199
320146,555,621,196
320161,641,490,236
320177,505,413,246
320193,359,618,199
320209,444,342,191
320225,349,462,232
320240,346,414,207
320256,357,603,220
320272,441,439,218
320288,395,640,223
320304,383,592,228
320320,381,512,225
320335,594,574,245
320351,457,183,220
320367,360,278,226
320383,588,610,241
320399,478,627,225
320414,347,253,175
320430,528,612,172
320446,341,614,207
320462,383,368,237
320478,363,487,306
320494,388,280,225
320509,377,466,232
320525,368,406,232
320541,557,485,239
320557,363,387,247
320573,435,188,195
320588,356,637,202
320604,439,300,218
320620,380,288,222
320636,376,594,192
320652,353,332,240
320667,635,521,223
320683,657,395,190
320699,446,389,230
320715,347,627,236
320731,557,310,233
320747,365,460,216
320762,376,592,185
320778,481,468,215
320794,507,494,172
320810,509,280,303
320826,510,229,239
320841,512,641,231
320857,509,383,214
320873,511,251,247
320889,464,621,250
320905,505,568,230
320921,512,331,218
320936,501,624,202
320952,506,444,242
320968,509,608,282
320984,515,487,249
321000,513,597,197
321015,512,396,192
321031,501,486,193
321047,504,565,208
321063,497,532,218
321079,509,542,248
321095,511,385,196
321110,503,622,221
321126,511,536,198
321142,510,338,198
321158,514,222,253
321174,511,436,227
321190,504,261,234
321205,510,541,238
321221,511,359,233
321237,514,618,213
321253,511,299,236
321269,500,617,233
321284,509,549,223
321300,509,636,231
321316,510,392,224
321332,509,570,227
321348,462,620,250
321364,484,586,217
321379,506,500,202
321395,513,627,205
321411,510,630,223
321427,474,502,221
321443,506,257,216
321458,511,291,213
321474,508,208,184
321490,509,534,240
321506,510,160,215
321522,511,590,263
321538,495,452,242
321553,507,584,209
321569,499,625,251
321585,497,602,248
321601,509,512,187
321617,514,602,215
321632,400,601,212
321648,349,471,206
321664,343,372,221
321680,344,380,205
321696,350,595,612
321712,412,580,226
321727,331,504,182
321743,463,606,206
321759,368,549,236
321775,413,468,197
321791,504,519,212
321806,596,625,656
321822,551,628,205
321838,559,643,213
321854,345,529,205
321870,347,624,163
321885,379,480,163
321901,379,349,237
321917,393,677,317
321933,542,473,207
321949,434,614,189
321965,498,240,334
321980,370,623,236
321996,359,348,225
322012,486,307,201
322028,510,357,183
322044,512,549,183
322060,567,439,215
322075,501,617,222
322091,494,582,253
322107,508,583,197
322123,512,328,166
322139,511,271,181
322154,506,622,233
322170,510,222,214
322186,509,222,233
322202,510,287,191
322218,477,609,203
322234,506,616,203
322249,510,261,210
322265,504,581,207
322281,509,354,227
322297,506,490,204
322313,507,645,217
322328,511,379,208
322344,510,608,200
322360,488,637,220
322376,507,640,231
322392,508,179,256
322408,502,627,194
322423,502,459,186
322439,666,224,208
322455,476,485,223
322471,511,547,199
322487,510,603,188
322502,508,646,199
322518,510,630,210
322534,510,540,254
322550,512,571,241
322566,513,631,183
322581,512,593,239
322597,508,241,186
322613,491,601,222
322629,515,503,214
322645,499,396,237
322661,508,617,253
322676,503,101,232
322692,509,619,188
322708,511,367,228
322724,510,612,232
322740,496,504,213
322755,507,606,234
322771,507,306,252
322787,511,294,235
322803,483,640,211
322819,498,302,194
322835,478,567,216
322850,508,630,229
322866,511,479,201
322882,504,336,215
322898,511,157,197
322914,513,402,211
322929,478,637,220
322945,506,543,214
322961,507,297,239
322977,510,280,205
322993,511,423,200
323009,512,494,208
323024,511,618,215
323040,510,186,188
323056,512,637,216
323072,507,612,197
323088,507,601,197
323103,509,494,193
323119,505,497,196
323135,510,532,206
323151,510,563,212
323167,505,315,205
323183,506,613,187
323198,508,441,181
323214,508,444,200
323230,511,566,280
323246,512,641,244
323262,508,647,191
323277,511,157,206
323293,512,544,208
323309,514,619,208
323325,512,297,191
323341,513,440,235
323357,490,295,211
323372,479,465,200
323388,505,628,195
323404,503,270,216
323420,510,622,219
323436,507,228,187
323451,494,620,247
323467,511,591,223
323483,510,299,194
323499,512,654,189
323515,513,350,194
323531,511,636,203
323546,512,643,204
323562,510,540,215
323578,510,386,186
323594,414,231,234
323610,365,430,334
323625,389,616,177
323641,346,381,227
323657,341,615,204
323673,378,616,235
323689,375,556,236
323705,643,531,217
323720,374,398,198
323736,361,629,215
323752,670,318,204
323768,403,662,191
323784,462,661,187
323799,424,427,183
323815,361,357,201
323831,402,532,191
323847,455,410,206
323863,495,629,216
323879,457,489,256
323894,504,613,265
323910,510,628,221
323926,501,426,218
323942,504,627,191
323958,503,332,249
323973,494,622,258
323989,518,622,222
324005,502,441,235
324021,451,346,201
324037,479,133,190
324053,484,623,223
324068,503,262,202
324084,505,294,236
324100,502,290,263
324116,503,538,201
324132,470,447,223
324147,495,478,264
324163,498,526,220
324179,492,198,246
324195,451,629,218
324211,465,606,233
324227,497,162,254
324242,480,333,207
324258,474,375,240
324274,507,380,256
324290,505,519,244
324306,474,302,720
324321,501,591,169
324337,517,485,208
324353,426,505,254
324369,541,598,216
324385,437,522,234
324400,467,633,235
324416,503,440,228
324432,501,443,241
324448,504,617,208
324464,496,582,237
324480,461,582,173
324495,508,457,195
324511,499,423,223
324527,446,595,241
324543,473,579,192
324559,500,593,195
324574,513,406,187
324590,510,620,193
324606,515,604,285
324622,512,591,249
324638,505,171,204
324654,508,400,202
324669,505,368,189
324685,491,282,214
324701,515,622,293
324717,512,421,266
324733,508,507,269
324748,494,416,239
324764,446,460,238
324780,506,367,259
324796,513,629,228
324812,476,608,256
324828,473,366,277
324843,519,651,217
324859,510,635,172
324875,486,352,236
324891,525,343,252
324907,517,597,300
324922,529,644,311
324938,518,644,265
324954,513,493,237
324970,404,521,241
324986,685,622,231
325002,625,525,191
325017,649,291,172
325033,357,524,176
325049,391,309,202
325065,350,403,147
325081,459,584,231
325096,503,621,745
325111,467,331,70
325128,469,636,257
325144,513,324,260
325160,508,356,330
325175,484,512,249
325191,474,417,203
325207,473,332,217
325223,491,439,219
325239,510,459,238
325255,514,512,242
325270,475,616,215
325286,463,646,202
325302,500,436,209
325318,483,178,240
325334,491,404,217
325349,508,470,246
325365,386,619,239
325381,393,600,193
325397,384,624,237
325413,560,609,217
325429,379,575,251
325444,404,627,213
325460,444,556,228
325476,528,539,228
325492,549,211,207
325508,469,621,229
325524,507,260,266
325539,445,440,234
325555,373,323,203
325571,331,406,214
325587,474,563,200
325603,502,524,226
325618,506,560,200
325634,492,578,267
325650,512,553,236
325666,480,539,205
325682,485,547,244
325697,520,551,246
325713,444,512,199
325729,361,337,200
325745,395,584,235
325761,505,616,220
325777,445,554,197
325792,505,558,199
325808,399,560,240
325824,498,588,220
325840,462,593,203
325856,508,588,208
325871,510,569,196
325887,502,330,208
325903,501,537,241
325919,485,552,234
325935,495,542,248
328411,
328421,52,502,202
328431,496,615,214
328441,510,385,198
328451,449,264,199
328461,505,632,207
328471,505,662,222
328481,486,627,202
328491,501,486,214
328501,505,622,248
328511,511,489,171
328521,497,322,551
328531,506,482,178
328541,500,483,178
328551,509,628,186
328561,510,446,208
328571,514,536,197
328581,511,288,232
328591,512,587,212
328601,507,613,189
328611,510,477,195
328621,514,396,230
328631,503,627,246
328641,510,377,235
328651,517,176,226
328661,451,348,239
328671,506,571,253
328681,501,576,213
328691,463,570,190
328701,506,555,196
328711,627,535,195
328721,499,419,210
328731,496,562,738
328741,510,219,239
328751,511,570,244
328761,509,591,263
328771,510,360,212
328781,512,615,212
328791,513,563,215
328801,512,478,217
328811,554,610,229
328821,496,633,220
328831,474,303,195
328841,505,347,213
328851,512,629,179
328861,488,638,167
328871,495,138,183
328881,490,225,189
328891,485,535,205
328901,455,76,185
328911,392,654,198
328921,437,602,247
328931,377,558,205
328941,463,466,220
328956,419,431,193
328972,464,598,192
328987,469,557,176
329003,387,234,244
329019,456,591,208
329035,391,339,213
329051,443,492,183
329066,473,570,221
329082,444,378,202
329098,477,605,210
329114,401,584,201
329130,383,613,235
329146,444,578,178
329161,428,186,226
329177,354,452,200
329193,356,184,204
329209,356,178,184
329225,353,350,206
329241,369,565,245
329256,463,444,220
329272,532,308,235
329288,447,307,188
329304,507,637,204
329320,428,480,220
329335,369,627,181
329351,372,293,208
329367,381,473,232
329383,372,580,184
329399,377,580,235
329414,410,485,241
329430,465,585,226
329446,488,588,212
329462,498,572,174
329478,509,461,216
329494,516,333,250
329509,517,625,263
329525,528,630,209
329541,413,365,206
329557,376,645,206
329573,390,386,209
329588,421,443,219
329604,439,622,181
329620,426,532,183
329636,388,555,179
329652,381,532,214
329668,410,212,160
329683,451,559,192
329699,354,544,185
329715,356,601,194
329731,372,307,204
329747,454,370,234
329762,386,564,198
329778,442,167,215
329794,354,474,205
329810,324,311,194
329826,331,606,202
329842,414,589,149
329857,460,412,202
329873,503,535,214
329889,437,553,192
329905,453,520,200
329921,669,572,239
329936,399,376,173
329952,333,232,147
329968,515,568,203
329984,515,626,196
330000,430,156,183
330016,398,219,214
330031,426,229,213
330047,397,592,209
330063,438,223,214
330079,395,252,251
330095,404,619,214
330110,403,495,216
330126,361,620,213
330142,461,478,206
330158,523,463,205
330174,449,440,215
330190,423,574,171
330205,501,563,176
330221,493,555,183
330237,507,559,194
330253,512,537,203
330269,512,359,229
330284,513,556,208
330300,474,412,202
330316,509,374,218
330332,505,425,223
330348,508,374,198
330364,513,497,210
330379,496,336,182
330395,507,510,209
330411,501,362,237
330427,513,429,203
330443,511,632,164
330458,476,638,207
330474,509,599,198
330490,489,556,207
330506,510,547,198
330522,508,546,218
330538,511,550,247
330553,501,580,222
330569,502,543,227
330585,459,573,193
330601,408,591,228
330617,537,618,188
330632,484,643,208
330648,431,620,195
330664,377,619,179
330680,457,437,222
330696,426,596,187
330712,480,577,176
330727,486,482,345
330743,426,582,254
330759,502,632,217
330775,509,610,223
330791,511,615,234
330806,491,584,224
330822,520,557,226
330838,470,475,170
330854,484,615,182
330870,499,377,183
330886,464,405,189
330901,414,468,205
330917,381,580,197
330933,367,612,208
330949,353,568,196
330965,594,411,217
330980,350,382,223
330996,364,560,254
331012,376,536,199
331028,383,301,178
331044,461,566,248
331060,524,534,277
331075,499,591,207
331091,497,519,271
331107,514,566,222
331123,434,562,220
331139,376,551,208
331154,346,546,203
331170,386,342,227
331186,479,564,219
331202,384,330,177
331218,347,329,193
331233,353,430,136
331249,468,628,179
331265,339,507,231
331281,229,572,251
331297,350,510,209
331313,418,637,219
331328,369,266,208
331344,377,356,229
331360,368,332,203
331376,383,403,200
331392,463,614,208
331408,462,535,226
331423,473,542,181
331438,512,61,212
331455,510,228,245
331471,519,558,230
331487,512,572,233
331502,499,569,210
331518,509,554,202
331534,515,208,261
331550,512,525,226
331566,505,523,195
331581,509,361,200
331597,511,493,229
331613,513,238,197
331629,517,547,218
331645,489,569,188
331661,508,405,238
331676,511,286,241
331692,490,339,246
331708,510,634,208
331724,514,504,207
331740,507,307,215
331755,512,636,188
331771,510,650,213
331787,511,369,235
331803,479,609,217
331819,498,348,180
331835,508,642,243
331850,507,614,217
331866,510,614,200
331882,510,612,219
331898,509,613,212
331914,403,599,203
331929,385,336,211
331945,382,589,216
331961,460,297,220
331977,354,452,230
331993,663,629,198
332009,331,493,222
332024,393,641,238
332040,563,631,231
332056,367,624,179
332072,338,354,216
332088,334,627,186
332103,568,609,177
332119,339,357,184
332135,356,507,192
332151,400,633,173
332167,344,280,190
332183,422,347,202
332198,347,445,214
332214,350,609,197
332230,378,613,178
332246,456,552,211
332262,516,365,224
332277,341,361,204
332293,390,602,253
332309,494,357,225
332325,612,626,205
332341,452,435,154
332357,502,282,221
332372,419,409,195
332388,405,461,215
332404,328,285,194
332420,393,313,214
332436,654,412,217
332451,503,332,207
332467,346,411,233
332483,586,537,213
332499,337,653,184
332515,338,164,169
332531,502,604,220
332546,418,252,211
332562,353,604,202
332578,348,350,232
332594,346,618,177
332610,506,205,204
332625,438,280,227
332641,441,549,189
332657,342,315,216
332673,349,620,213
332689,508,485,216
332705,371,466,203
332720,377,360,235
332736,413,630,198
332752,356,362,234
332768,516,607,199
332784,530,634,179
332799,339,655,194
332815,375,625,180
332831,451,384,189
332847,450,635,239
332863,442,259,172
332878,431,619,262
332894,626,610,194
332910,649,531,193
332926,433,624,167
332942,334,361,187
332958,522,367,167
332973,350,624,184
332989,354,333,198
333005,376,609,182
333021,484,306,197
333037,371,642,229
333052,344,329,204
333068,363,625,190
333084,345,358,185
333100,338,373,242
333116,373,251,213
333132,328,472,200
333147,382,630,237
333163,460,589,257
333179,667,412,218
333195,353,605,193
333211,346,628,207
333226,491,354,203
333242,351,400,216
333258,446,580,242
333274,571,201,201
333290,516,510,218
333306,396,311,190
333321,689,334,212
333337,458,604,198
333353,505,579,208
333369,508,239,214
333385,508,382,183
333400,512,521,258
333416,512,459,214
333432,440,397,246
333448,358,422,188
333464,355,652,216
333480,378,344,188
333495,380,179,213
333511,350,601,233
333527,353,619,198
333543,488,550,232
333559,510,417,237
333574,375,629,210
333590,370,395,210
333606,348,609,259
333622,350,427,197
333638,353,439,193
333654,354,305,187
333669,353,622,185
333685,405,473,251
333701,528,350,211
333717,341,432,209
333733,425,649,203
333748,379,624,182
333764,366,637,187
333780,435,406,214
333796,361,604,257
333812,404,587,252
333828,369,605,214
333843,642,276,194
333859,329,406,217
333875,336,353,196
333891,422,480,211
333907,452,471,213
333922,348,163,230
333938,376,380,227
333954,366,405,235
333970,362,481,234
333986,378,605,228
334002,369,623,229
334017,526,629,212
334033,364,372,244
334049,442,544,210
334065,363,632,235
334081,383,601,187
334096,357,344,193
334112,370,387,189
334128,362,404,212
334144,348,140,198
334160,622,420,204
334176,357,248,228
334191,424,167,203
334207,377,360,200
334223,369,554,212
334239,355,244,222
334255,363,376,227
334270,350,403,184
334286,452,501,199
334302,354,572,187
334318,367,540,176
334334,641,596,156
334349,346,154,163
334365,360,551,148
334381,583,481,178
334397,356,328,209
334413,364,278,188
334429,694,631,215
334444,333,392,213
334460,510,497,211
334476,340,327,217
334492,339,617,244
334508,429,405,180
334523,369,637,219
334539,482,446,208
334555,365,620,242
334571,363,306,191
334587,369,634,194
334603,366,180,214
334618,363,166,258
334634,377,617,200
334650,349,527,225
334666,347,474,201
334682,344,531,233
334698,360,531,212
334713,499,298,205
334729,341,259,191
334745,348,396,195
334761,352,610,214
334777,360,472,262
334792,487,370,197
334808,509,446,203
334824,514,501,243
334840,499,640,193
334856,498,475,215
334872,416,394,235
334887,693,373,206
334903,478,333,245
334919,508,228,208
334935,511,589,213
334951,514,532,220
334966,512,593,205
334982,519,609,195
334998,507,422,216
335014,511,640,242
335030,431,616,202
335045,494,618,180
335061,503,418,205
335077,498,525,192
335093,499,570,148
335109,511,627,193
335125,511,621,226
335140,510,249,222
335156,508,623,231
335172,509,504,232
335188,501,608,179
335204,510,637,213
335219,510,168,214
335235,510,479,210
335251,513,607,186
335267,510,592,247
335283,497,639,218
335299,508,294,218
335314,500,511,200
335330,509,276,204
335346,512,631,191
335362,511,257,214
335378,511,659,225
335393,513,653,168
335409,513,646,217
335425,513,558,176
335441,512,611,179
335457,496,496,215
335473,510,579,223
335488,511,423,185
335504,513,627,223
335520,510,609,218
335536,512,572,241
335552,512,197,240
335567,503,318,234
335583,511,375,222
335599,509,487,180
335615,526,335,204
335631,389,621,237
335647,350,652,227
335662,466,281,185
335678,414,630,253
335694,499,394,208
335710,487,396,194
335726,500,576,215
335741,506,617,229
335757,505,422,215
335773,516,594,178
335789,518,584,200
335805,513,377,172
335821,513,492,227
335836,514,288,205
335852,512,468,199
335868,489,623,210
335884,506,338,207
335900,511,262,594
335915,485,581,168
335931,517,626,230
335947,514,610,184
335963,518,296,168
335979,510,627,169
335995,511,251,175
336010,500,640,233
336026,499,492,230
336042,512,475,197
336058,502,435,220
336074,489,616,178
336089,509,468,162
336105,513,374,209
336121,476,614,170
336137,517,524,209
336153,511,582,200
336169,516,594,197
336184,509,276,173
336200,505,618,178
336216,507,463,240
336232,503,419,201
336248,507,603,172
336263,510,119,170
336279,509,431,200
336295,504,613,261
336311,497,469,184
336327,512,654,183
336343,496,427,181
336358,512,616,208
336374,495,638,223
336390,506,619,186
336406,508,479,204
336422,514,608,210
336437,512,247,175
336453,517,341,179
336469,517,481,212
336485,488,170,192
336501,481,400,201
336517,507,134,221
336532,513,633,229
336548,494,305,225
336564,511,412,221
336580,509,598,196
336596,492,605,220
338986,608,474,221
338996,566,132,204
339006,348,179,185
339016,382,622,723
339026,436,464,196
339036,629,612,183
339046,408,212,220
339056,409,442,224
339066,374,183,200
339076,337,538,236
339086,485,634,205
339096,526,457,210
339106,486,586,187
339116,505,599,207
339126,507,578,202
339136,501,572,167
339146,519,563,212
339156,503,280,234
339166,396,576,204
339176,362,279,225
339186,394,300,250
339196,476,554,242
339206,481,568,261
339216,415,441,213
339226,333,337,206
339236,381,577,224
339246,368,189,233
339256,414,581,243
339266,734,550,344
339276,446,614,296
339286,514,574,123
339296,467,614,174
339306,498,587,153
339316,521,503,169
339326,531,328,224
339336,514,383,244
339346,519,431,178
339356,510,460,226
339366,494,595,249
339376,422,605,228
339386,369,550,228
339396,386,193,215
339406,382,399,209
339416,394,471,257
339426,393,582,232
339436,494,400,193
339446,510,343,220
339456,507,542,242
339466,512,231,212
339476,495,567,239
339486,509,564,200
339496,514,405,188
339506,510,550,250
339522,506,590,228
339538,512,571,216
339554,497,420,243
339569,507,221,257
339585,511,375,207
339601,511,607,185
339617,500,500,199
339633,506,249,209
339648,563,613,198
339664,434,619,207
339680,504,529,205
339696,496,467,231
339712,494,614,245
339728,485,621,194
339743,514,506,190
339759,508,263,194
339775,517,601,267
339791,530,405,204
339807,511,444,166
339822,479,191,230
339838,495,564,205
339854,486,540,196
339870,506,267,219
339886,510,526,261
339902,511,594,202
339917,514,256,229
339933,516,483,217
339949,485,572,205
339965,502,329,211
339981,507,642,262
339996,511,649,280
340012,513,637,224
340028,503,377,228
340044,510,505,183
340060,514,650,221
340076,494,242,213
340091,504,272,197
340107,511,199,208
340123,511,188,204
340139,508,339,198
340155,509,165,211
340170,512,479,176
340186,512,621,185
340202,512,613,235
340218,512,528,235
340234,514,621,204
340250,484,535,259
340265,501,379,220
340281,501,258,200
340297,510,265,193
340313,489,621,178
340329,510,585,225
340344,510,607,211
340360,508,128,185
340376,510,573,219
340392,512,383,220
340408,515,598,240
340424,512,549,253
340439,503,621,240
340455,495,608,255
340471,506,473,197
340487,511,508,223
340503,513,505,173
340518,435,376,224
340534,485,480,214
340550,509,628,245
340566,514,487,177
340582,466,287,207
340598,505,345,233
340613,510,580,207
340629,473,259,205
340645,506,600,209
340661,509,610,248
340677,511,336,236
340692,512,281,207
340708,500,609,222
340724,509,244,206
340740,509,334,174
340756,513,366,198
340772,513,507,212
340787,480,629,195
340803,503,450,203
340819,514,633,211
340835,469,475,184
340851,506,575,222
340866,496,628,202
340882,510,634,193
340898,511,375,214
340914,510,615,226
340930,513,437,203
340946,485,528,195
340961,491,294,181
340977,509,599,226
340993,516,369,192
341009,510,606,174
341025,510,632,204
341041,506,356,219
341056,502,557,243
341072,496,520,201
341088,505,630,230
341104,509,631,234
341120,509,392,211
341135,503,638,209
341151,510,466,243
341167,509,624,196
341183,497,193,222
341199,508,615,234
341214,508,430,234
341230,510,386,200
341246,722,630,220
341262,493,251,251
341278,508,282,221
341294,500,538,226
341309,508,645,223
341325,512,457,198
341341,511,595,154
341357,511,400,193
341373,510,312,183
341388,494,536,716
341404,506,560,172
341420,510,289,207
341436,510,338,224
341452,505,341,235
341468,510,495,176
341483,510,260,198
341499,509,632,218
341515,504,599,199
341531,507,608,208
341547,512,657,245
341562,509,536,222
341578,513,625,181
341594,498,574,198
341610,510,369,237
341626,509,659,187
341642,507,617,182
341657,512,568,228
341673,514,366,172
341689,513,486,191
341705,513,611,191
341721,511,296,180
341736,511,630,222
341752,511,616,233
341768,481,621,177
341784,505,363,190
341800,511,253,316
341816,509,405,185
341831,510,583,208
341847,507,601,207
341863,514,599,228
341879,509,336,144
341895,516,339,199
341911,506,412,189
341926,505,357,205
341942,505,544,227
341958,505,320,209
341974,513,368,205
341990,498,622,200
342005,497,648,230
342021,510,250,191
342037,513,548,202
342053,499,642,228
342069,509,607,196
342085,511,630,218
342100,512,638,238
342116,506,490,254
342132,511,290,181
342148,510,395,212
342164,494,640,228
342179,508,585,205
342195,510,376,216
342211,504,629,191
342227,511,298,192
342243,510,340,222
342259,512,393,242
342274,505,251,198
342290,510,567,241
342306,503,457,202
342322,495,600,226
342338,500,535,192
342353,392,627,210
342369,365,655,176
342385,343,534,210
342401,473,590,243
342417,330,625,233
342433,335,495,224
342448,588,599,201
342464,331,479,196
342480,351,548,212
342496,612,629,746
342512,347,519,218
342527,524,621,221
342543,364,327,185
342559,425,190,182
342575,485,513,214
342591,507,577,197
342607,505,341,179
342622,511,218,173
342638,510,626,211
342654,491,633,192
342670,509,324,204
342686,505,448,193
342701,509,132,177
342716,507,88,209
342733,512,645,257
342749,507,163,202
342765,510,642,217
342780,492,627,232
342796,508,636,203
342812,511,449,201
342828,511,429,198
342844,512,382,179
342860,513,618,169
342875,510,607,212
342891,511,225,219
342907,490,462,182
342923,509,639,176
342939,510,238,223
342954,489,445,178
342970,507,537,206
342986,495,653,231
343002,509,655,194
343018,510,499,161
343034,512,445,193
343049,513,438,201
343065,507,648,208
343081,511,527,217
343097,512,368,190
343113,512,216,203
343128,512,616,165
343144,505,423,212
343160,493,497,205
343176,508,608,176
343192,510,367,190
343208,512,556,167
343223,512,312,260
343239,512,627,190
343255,512,531,161
343271,505,190,178
343287,509,434,225
343302,513,621,210
343318,512,183,198
343334,513,620,207
343350,513,598,189
343366,510,483,207
343382,511,322,205
343397,513,542,216
343413,513,640,188
343429,493,621,210
343445,508,375,217
343461,507,605,210
343476,494,599,201
343492,505,302,181
343508,491,508,159
343524,506,612,190
343540,508,298,196
343556,503,620,197
343571,511,631,204
343587,529,176,236
343603,462,647,194
343619,509,409,222
343635,509,609,216
343650,514,440,186
343666,507,264,221
343682,511,635,241
343698,501,320,244
343714,509,409,211
343730,510,302,213
343745,509,641,218
343761,504,649,223
343777,502,623,185
343793,485,628,204
343809,506,671,239
343824,509,620,232
343840,512,603,209
343856,509,542,204
343872,505,321,243
343888,514,563,226
343904,454,626,242
343919,497,349,244
343935,475,637,245
343951,508,626,198
343967,489,607,155
343983,504,335,234
343998,500,123,223
344014,507,618,169
344030,501,197,231
344046,504,303,207
344062,505,497,193
344078,503,457,257
344093,510,629,194
344109,513,372,174
344125,510,170,209
344141,471,505,205
344157,500,625,188
344172,502,610,167
344188,487,273,225
344204,480,181,185
344220,507,415,196
344236,506,371,202
344251,485,191,180
344267,507,635,206
344283,507,323,210
344299,509,631,225
344315,505,289,226
344331,500,288,213
344346,480,385,185
344362,506,549,183
344378,511,614,180
344394,515,537,211
344410,506,491,201
344425,497,643,203
344441,506,374,228
344457,498,305,160
344473,505,440,211
344489,504,314,174
344505,514,290,180
344520,511,205,178
344536,512,238,163
344552,510,520,192
344568,502,605,206
344584,510,558,186
344599,507,385,226
344615,512,319,191
344631,486,650,174
344647,506,503,193
344663,510,602,190
344679,511,634,182
344694,512,468,201
344710,509,419,212
344726,514,466,179
344742,512,336,177
344758,512,642,172
344773,511,661,156
344789,512,332,162
344805,514,548,174
344821,510,285,199
344837,473,640,165
344853,491,625,166
344868,508,610,182
344884,509,367,216
344900,501,541,204
344916,521,311,208
344932,515,276,204
344947,512,348,184
344963,500,244,189
344979,509,322,193
344995,505,645,194
345011,519,209,193
345027,520,620,244
345042,499,666,198
345058,499,631,234
345074,515,561,224
345090,511,443,203
345106,489,332,211
345121,515,378,237
345137,503,615,209
345153,512,607,178
345169,512,577,177
345185,499,606,199
345201,495,266,192
345216,495,357,201
345232,507,603,199
345248,511,608,231
345264,510,343,214
345280,503,560,215
345295,424,584,188
345311,393,560,221
345327,426,622,213
345343,423,587,227
345359,494,238,248
345375,506,594,234
345390,507,138,253
345406,509,596,227
345422,514,643,178
345438,475,563,208
345454,502,437,246
345469,484,236,224
345485,491,612,191
345501,506,438,213
345517,496,316,239
345533,506,436,252
345549,485,208,194
345564,516,574,220
345580,508,537,247
345596,515,578,267
345612,493,604,233
345628,514,281,225
345643,512,410,246
345659,511,602,193
345675,491,562,243
345691,508,490,254
345707,514,603,241
345723,497,303,201
345738,464,625,188
345754,511,623,607
345770,515,597,206
345786,521,362,217
345802,508,172,198
345817,484,573,225
345833,505,535,184
345849,498,634,259
345865,472,618,208
345881,510,275,244
345897,523,631,221
345912,485,419,239
345928,496,470,223
345944,493,354,535
345960,447,619,204
345976,492,574,194
345991,511,632,177
346007,497,433,194
346023,513,370,155
346039,508,485,166
346055,510,494,165
346071,510,617,200
346086,512,397,208
346102,513,613,217
346118,499,585,253
346134,553,590,270
346150,411,509,233
346165,461,476,258
346181,477,565,242
346197,384,248,243
346213,348,542,211
346229,352,496,178
346245,347,449,205
346260,388,584,181
346276,480,224,237
346292,496,560,237
346308,510,540,233
346324,471,603,229
346339,492,418,215
346355,475,465,193
346371,489,454,217
346387,521,634,257
346403,368,426,239
346419,436,441,242
346434,644,441,258
346450,427,493,202
346466,581,643,215
346482,456,583,226
346498,448,570,253
346513,362,400,318
346529,393,271,252
346545,452,330,313
346561,361,626,257
346577,602,578,290
346592,456,171,285
346608,462,567,269
346624,474,448,316
346640,476,621,295
346656,436,585,264
346672,390,628,232
346687,396,597,223
346703,422,593,203
346719,371,612,182
346735,373,608,171
346751,464,648,170
346766,387,576,177
346782,469,443,256
346798,504,528,225
346814,518,611,254
346830,461,558,218
346846,507,564,239
346861,509,340,248
346877,512,580,260
346893,510,553,219
346909,492,584,144
346925,514,556,192
346940,511,562,274
346956,509,201,231
346972,432,352,221
346988,509,574,205
347004,381,208,218
347020,438,557,205
347035,475,593,224
347051,356,646,248
347067,369,479,241
347083,588,250,297
347099,413,384,239
347114,482,584,300
347130,516,565,245
347146,470,295,289
347162,504,592,264
365471,7,282
365481,428,599,245
365491,463,610,264
365501,495,316,268
365511,513,297,267
365521,514,663,247
365531,513,617,235
365541,490,389,264
365551,486,355,284
365561,509,219,253
365571,502,635,304
365581,509,289,254
365591,507,621,272
365601,514,388,279
365611,514,489,279
365621,512,621,286
365631,511,523,277
365641,513,633,273
365651,490,504,278
365661,508,588,272
365671,515,247,248
365681,362,636,275
365691,517,589,252
365701,341,364,249
365711,333,369,248
365721,483,636,258
365731,347,371,268
365741,354,378,280
365751,352,536,242
365761,345,228,239
365771,404,628,217
365781,457,635,251
365791,493,645,233
365801,514,622,242
365811,507,224,222
365821,520,301,272
365831,503,346,250
365841,518,634,262
365851,514,417,247
365861,511,523,286
365871,510,541,303
365881,512,644,261
365891,500,641,234
365901,497,511,259
365911,491,432,238
365921,511,270,244
365931,508,207,248
365941,484,227,222
365951,507,651,258
365961,522,540,235
365971,510,631,261
365981,510,606,252
365991,513,397,240
366001,485,618,320
366017,506,320,250
366033,510,489,261
366048,446,632,251
366064,414,393,252
366080,500,648,237
366096,512,347,257
366112,456,283,256
366128,596,362,236
366143,351,569,249
366159,464,176,257
366175,502,347,249
366191,502,622,245
366207,511,616,211
366222,511,521,243
366238,428,615,251
366254,399,363,229
366270,497,626,242
366286,508,625,236
366302,503,643,195
366317,512,640,234
366333,511,621,241
366349,506,663,226
366365,504,305,247
366381,512,627,262
366396,512,152,242
366412,473,624,249
366428,485,357,235
366444,456,377,260
366460,474,578,254
366476,506,329,240
366491,514,471,285
366507,512,544,230
366523,501,548,242
366539,510,543,228
366555,510,549,251
366570,511,569,271
366586,516,303,195
366602,512,458,252
366618,493,339,219
366634,509,586,231
366650,483,600,234
366665,428,613,259
366681,493,197,267
366697,472,638,238
366713,507,256,230
366729,512,319,230
366744,514,690,248
366760,499,118,227
366776,506,537,240
366792,510,441,251
366808,510,637,245
366824,508,614,251
366839,511,213,250
366855,506,385,241
366871,511,462,249
366887,507,306,245
366903,509,517,235
366918,508,186,241
366934,513,580,245
366950,515,499,243
366966,511,520,262
366982,510,332,254
366997,513,675,258
367013,513,249,234
367029,510,622,226
367045,504,286,231
367061,514,409,253
367077,514,347,242
367092,508,257,236
367108,512,253,242
367124,502,412,290
367140,497,640,274
367156,504,550,262
367171,497,621,243
367187,508,343,274
367203,510,623,277
367219,490,602,254
367235,509,432,300
367251,500,641,295
367266,511,541,292
367282,513,177,283
367298,510,164,269
367314,512,128,270
367330,514,230,269
367345,511,666,235
367361,477,641,267
367377,336,536,233
367393,373,323,235
367409,363,335,236
367425,457,234,220
367440,351,591,232
367456,315,629,206
367472,472,592,266
367488,420,349,234
367504,451,525,249
367519,351,637,273
367535,390,223,244
367551,423,612,224
367567,421,639,214
367583,475,665,231
367599,456,445,265
367614,497,258,236
367630,510,428,235
367646,476,551,266
367662,499,299,217
367678,505,361,234
367694,512,236,236
367709,509,365,264
367725,507,500,266
367741,489,414,258
367757,508,645,258
367773,490,633,259
367788,508,216,262
367804,511,474,270
367820,502,494,258
367836,511,529,245
367852,506,318,284
367868,513,626,282
367883,496,409,252
367899,501,128,272
367915,509,290,261
367931,697,323,333
367947,358,378,263
367962,469,615,232
367978,499,618,244
367994,514,249,232
368010,514,268,216
368026,512,615,288
368042,506,533,264
368057,507,642,275
368073,501,631,240
368089,513,383,269
368105,514,369,269
368121,511,662,251
368136,513,298,216
368152,473,262,230
368168,508,304,273
368184,453,627,228
368200,490,549,257
368216,506,277,235
368231,514,306,275
368247,511,139,269
368263,470,499,262
368279,507,322,260
368295,513,611,252
368311,507,559,258
368326,482,566,255
368342,504,574,270
368358,512,556,230
368374,498,198,250
368390,495,599,250
368405,510,351,230
368421,507,556,240
368437,515,405,246
368453,515,630,244
368469,510,374,260
368484,514,255,271
368500,517,260,249
368516,517,614,253
368532,497,641,285
368548,500,518,249
368564,512,684,235
368579,489,449,252
368595,484,319,242
368611,505,641,258
368627,510,477,241
368643,505,520,235
368658,507,217,252
368674,507,391,222
368690,516,253,231
368706,512,355,266
368722,513,306,252
368738,509,234,246
368753,509,631,231
368769,508,146,247
368785,513,631,266
368801,512,348,263
368817,512,632,255
368832,503,626,274
368848,510,648,253
368864,510,633,265
368880,514,386,259
368896,475,417,238
368912,503,235,267
368927,509,172,269
368943,521,620,261
368959,511,624,280
368975,512,443,282
368991,513,468,254
369006,511,294,287
369022,513,443,279
369038,512,273,273
369054,512,633,277
369070,495,355,248
369086,364,553,260
369101,463,212,249
369117,527,450,250
369133,472,482,274
369149,349,634,267
369165,354,622,261
369180,439,127,240
369196,356,276,249
369212,345,629,258
369228,338,605,259
369244,358,386,233
369260,341,422,277
369275,323,606,281
369291,319,625,256
369307,435,247,267
369323,492,500,251
369339,510,231,294
369354,511,277,242
369370,512,271,252
369386,501,407,228
369402,510,333,277
369418,511,328,274
369434,510,391,265
369449,513,638,250
369465,510,633,277
369481,505,647,288
369497,516,638,256
369513,512,650,221
369528,514,568,262
369544,487,126,269
369560,502,385,265
369576,508,626,253
369592,512,254,274
369608,512,600,272
369623,513,383,249
369639,512,393,231
369655,505,260,272
369671,515,528,266
369687,506,668,258
369702,511,685,291
369718,508,419,264
369734,514,681,295
369750,513,259,271
369766,513,637,250
369782,511,313,276
369797,510,264,256
369813,510,412,275
369829,511,339,244
369845,512,642,244
369861,510,319,263
369876,488,601,249
369892,511,426,267
369908,494,334,234
369924,509,584,251
369940,512,661,242
369955,479,629,280
369971,509,623,298
369987,509,628,279
370003,506,456,283
370019,510,575,261
370035,474,515,270
370050,506,652,269
370066,510,641,251
370082,506,620,245
370098,510,422,255
370114,511,106,274
370129,511,568,253
370145,513,315,256
370161,506,329,254
370177,510,448,274
370193,512,663,267
370209,509,569,257
370224,508,411,261
370240,499,301,247
370256,485,265,275
370272,509,450,236
370288,508,660,282
370303,485,259,300
370319,506,635,296
370335,503,317,273
370351,507,593,246
370367,499,542,264
370383,504,595,252
370398,498,351,238
370414,507,334,247
370430,511,490,231
370446,509,509,296
370462,492,611,247
370477,507,316,237
370493,509,628,289
370509,508,359,277
370525,510,516,265
370541,510,458,257
370557,513,474,243
370572,489,625,271
370588,510,540,261
370604,505,634,280
370620,510,624,285
370636,511,241,281
370652,513,256,260
370667,511,642,278
370683,509,180,274
370699,506,683,264
370715,505,241,262
370731,514,601,260
370746,512,247,262
370762,512,350,281
370778,503,555,285
370794,509,651,272
370810,509,239,245
370825,512,456,236
370841,511,622,246
370857,493,637,233
370873,503,329,248
370889,509,632,268
370905,510,441,239
370920,509,492,234
370936,513,246,265
370952,515,617,279
370968,503,418,245
370984,466,402,264
370999,498,229,280
371015,507,421,260
371031,509,116,243
371047,486,629,226
371063,499,153,256
371079,511,481,271
371094,512,320,278
371110,508,644,261
371126,513,445,260
371142,524,642,250
371158,511,668,235
371173,511,283,253
371189,511,311,265
371205,515,310,243
371221,523,600,271
371237,491,436,279
371253,512,396,263
371268,516,408,259
371284,501,488,260
371300,500,665,239
371316,498,260,235
371332,518,441,256
371347,503,213,247
371363,507,614,261
371379,509,166,278
371395,509,590,267
371411,509,190,272
371427,513,165,290
371442,510,244,278
371458,513,353,273
371474,517,686,275
371490,511,681,265
371506,513,653,253
371521,514,297,245
371537,513,190,244
371553,512,623,267
371569,514,343,265
371585,511,284,252
371601,509,587,276
371616,512,306,259
371632,511,586,246
371648,487,637,258
371664,509,229,246
371680,513,252,265
371695,510,630,258
371711,508,261,232
371727,507,345,262
371743,505,619,278
371759,510,358,239
371775,511,208,253
371790,516,317,265
371806,502,384,261
371822,509,380,248
371838,506,636,282
371854,497,614,283
371869,504,636,297
371885,507,280,226
371901,513,535,259
371917,499,670,238
371933,506,160,284
371949,513,635,264
371964,505,251,253
371980,503,412,240
371996,511,618,294
372012,515,649,290
372028,512,394,293
372043,510,464,265
372059,512,341,246
372075,513,682,263
372091,511,651,264
372107,509,277,271
372123,513,634,265
372138,492,627,243
372154,508,631,245
372170,509,475,258
372186,502,662,257
372202,509,250,263
372217,511,646,295
372233,499,616,281
372249,509,355,267
372265,509,648,262
372281,506,234,247
372297,509,329,273
372312,513,282,232
372328,500,644,280
372344,507,645,275
372360,512,396,252
372376,510,615,256
372391,506,335,278
372407,510,645,265
372423,511,315,261
372439,507,659,235
372455,513,460,270
372471,498,352,248
372486,496,345,252
372502,510,620,260
372518,515,441,252
372534,510,308,249
372550,511,401,248
372565,509,655,252
372581,512,311,243
372597,509,506,279
372613,481,301,298
372629,496,503,281
372644,508,388,286
372660,510,299,264
372676,505,422,245
372692,431,429,264
372708,419,624,265
372724,501,352,282
372739,510,631,263
372755,509,239,281
372771,510,646,276
372787,500,500,252
372803,505,416,252
372818,508,617,258
372834,510,312,254
372850,512,495,256
372866,510,434,245
372882,514,445,250
372898,513,628,292
372913,513,435,253
372929,511,649,283
372945,512,627,247
372961,514,164,238
372977,510,593,272
372992,511,634,278
373008,512,328,262
373024,512,388,261
373040,514,664,270
373056,512,580,269
373072,511,196,244
373087,508,642,236
373103,509,693,250
373119,511,573,245
373135,508,389,245
373151,512,263,259
373166,513,494,258
373182,513,642,282
373198,511,210,263
373214,513,250,252
373230,502,335,242
373246,507,652,249
373261,504,601,239
373277,502,623,273
373293,516,615,233
373309,513,620,230
373325,513,452,247
373340,515,256,266
373356,512,360,242
373372,513,189,276
373388,509,301,270
373404,488,311,261
373420,508,281,252
373435,512,506,257
373451,513,656,250
373467,509,240,253
373483,469,514,246
373499,502,655,284
373514,505,654,260
373530,501,406,250
373546,505,315,253
373562,503,418,234
373578,497,474,258
373594,484,657,268
373609,504,433,256
373625,510,364,247
373641,508,352,252
378552,245
378562,
378572,758,556,218
378582,27,623,230
378592,657,317
378602,459,526,268
378612,485,519,228
378622,508,575,245
378632,507,551,273
378642,509,621,260
378652,469,581,261
378662,495,632,255
378672,505,389,279
378682,510,516,254
378692,495,625,221
378703,514,429,252
378713,504,624,244
378723,497,641,235
378733,511,642,264
378743,490,634,282
378753,508,502,288
378763,510,413,299
378773,500,296,239
378783,509,462,257
378793,496,630,268
378803,509,637,253
378813,511,650,240
378823,515,636,250
378833,515,245,236
378843,508,647,213
378853,508,384,247
378863,511,203,244
378873,516,484,285
378883,472,280,269
378893,501,619,253
378903,500,337,232
378913,497,493,240
378923,505,223,257
378933,516,413,234
378943,513,429,229
378953,513,412,242
378963,516,547,267
378973,507,170,294
378983,511,521,286
378993,515,625,284
379003,514,614,290
379013,513,636,258
379023,516,346,231
379033,515,677,249
379043,502,383,239
379053,514,552,249
379063,514,499,245
379073,515,569,261
379083,499,225,240
379093,496,558,273
379103,510,458,306
379114,505,449,249
379130,510,556,249
379146,511,381,280
379162,507,611,262
379178,511,201,281
379193,510,384,243
379209,511,380,258
379225,510,523,245
379241,513,568,244
379257,510,638,257
379272,504,402,248
379288,506,508,253
379304,498,627,216
379320,504,285,246
379336,511,535,214
379352,500,352,216
379368,508,647,191
379383,511,648,222
379399,512,459,249
379415,504,322,198
379431,511,679,220
379446,513,223,229
379462,513,650,226
379478,503,607,232
379494,506,645,206
379510,511,584,258
379526,513,572,246
379541,512,657,254
379557,509,287,241
379573,512,336,237
379589,482,453,275
379605,467,186,240
379620,505,302,238
379636,485,623,228
379652,507,553,212
379668,513,607,263
379684,505,392,245
379700,510,398,249
379715,511,462,231
379731,514,666,249
379747,516,593,227
379763,504,282,244
379779,518,614,224
379794,513,422,217
379810,507,647,276
379826,513,493,227
379842,513,321,242
379858,512,311,225
379874,511,409,246
379889,513,156,235
379905,511,580,266
379921,511,366,280
379937,511,397,263
379953,511,523,270
379968,512,625,289
379984,512,648,293
380000,512,319,273
380016,509,626,254
380032,512,305,247
380048,492,338,244
380063,508,368,204
380079,512,236,230
380095,511,669,239
380111,512,333,226
380127,499,315,233
380142,511,342,215
380158,499,664,224
380174,509,245,254
380190,507,273,241
380206,512,235,245
380222,511,663,236
380237,513,174,236
380253,511,685,239
380269,508,301,220
380285,511,499,234
380301,510,612,222
380316,509,512,214
380332,510,690,230
380348,510,232,244
380364,512,446,223
380380,512,462,242
380395,512,645,253
380411,511,672,233
380427,512,120,250
380443,511,254,268
380459,512,434,257
380475,512,296,228
380490,506,426,243
380506,511,314,253
380522,503,350,258
380538,510,649,264
380554,513,197,242
380569,509,385,267
380585,499,665,265
380601,505,487,248
380617,518,422,250
380633,514,277,231
380649,513,396,228
380664,513,661,276
380680,512,474,257
380696,512,311,226
380712,512,443,230
380728,513,581,238
380743,514,490,245
380759,509,646,251
380775,510,436,240
380791,513,393,277
380807,509,606,240
380823,512,596,266
380838,507,395,288
380854,513,515,264
380870,511,580,239
380886,512,600,243
380902,498,380,244
380918,510,648,234
380933,502,433,251
380949,514,629,221
380965,462,613,229
380981,508,594,227
380997,510,609,207
381012,501,499,220
381028,511,639,242
381044,476,486,233
381060,489,650,229
381076,491,592,224
381092,504,628,195
381107,513,328,249
381123,500,450,272
381139,499,450,273
381155,507,437,290
381171,506,410,265
381186,487,362,244
381202,502,308,271
381218,513,613,249
381234,787,586,238
381250,435,554,260
381266,432,375,268
381281,452,589,269
381297,464,557,266
381313,497,574,235
381329,451,261,244
381345,560,447,263
381360,348,368,249
381376,369,622,241
381392,425,283,238
381408,413,448,280
381424,407,599,298
381440,508,499,321
381455,507,408,342
381471,516,262,318
381487,479,641,300
381503,571,629,332
381519,558,592,318
381534,459,410,306
381550,485,685,321
381566,502,245,264
381582,526,254,298
381598,532,651,282
381614,503,277,298
381629,518,329,322
381645,516,376,318
381661,506,586,340
381677,520,610,282
381693,535,595,324
381708,506,569,388
381724,503,592,297
381740,494,541,337
381756,382,551,307
381772,377,308,293
381788,376,560,224
381803,398,543,199
381819,403,545,216
381835,444,573,154
381851,392,305,108
381867,470,194,254
381882,485,444,347
381898,421,351,333
381914,342,660,284
381930,508,632,301
381946,331,637,282
381961,338,229,251
381977,694,610,325
381993,407,585,319
382009,362,618,317
382025,355,552,344
382041,369,406,298
382056,353,609,386
382072,647,669,309
382088,638,642,302
382104,498,481,212
382119,429,445,84
382135,368,540,343
382151,494,414,445
382167,467,464,219
382183,511,671,272
382199,399,524,322
382215,411,602,315
382230,448,576,338
382246,417,543,310
382262,449,511,349
382278,474,252,326
382294,513,339,285
382309,519,486,344
382325,530,293,320
382341,476,461,362
382357,519,603,337
382373,512,607,378
382389,517,607,378
382404,510,578,338
382420,518,537,352
382436,512,555,331
382452,508,554,315
382468,511,294,292
382483,517,600,302
382499,508,283,335
382515,503,256,304
382531,508,129,289
382547,520,447,301
382563,513,322,272
382578,422,276,300
382594,495,639,258
382610,510,245,269
382626,515,550,249
382642,501,577,239
382657,513,607,249
382673,510,598,273
382689,508,588,287
382705,503,374,288
382721,506,247,291
382737,513,560,283
382752,507,404,323
382768,460,386,300
382784,500,364,290
382800,512,466,257
382816,499,587,303
382831,412,175,291
382847,365,583,275
382863,359,455,275
382879,328,295,280
382895,473,503,267
382911,520,657,272
382926,490,635,282
382942,362,187,286
382958,335,537,268
382974,322,636,260
382990,397,198,247
383005,359,586,235
383021,346,677,196
383037,361,352,255
383053,341,388,239
383069,351,160,287
383085,578,352,260
383100,306,176,275
383116,428,350,265
383132,505,632,251
383148,512,565,266
383164,513,242,273
383180,515,592,274
383195,515,604,263
383211,507,614,295
383227,435,291,292
383243,503,193,300
383259,479,585,300
383274,508,576,276
383290,516,531,260
383306,499,348,340
383322,455,585,301
383338,504,520,290
383354,510,551,338
383369,467,207,342
383385,431,440,330
383401,438,590,331
383417,449,613,332
383433,423,317,324
383448,422,622,290
383464,424,601,335
383480,718,388,350
383496,416,626,316
383512,443,629,324
383528,443,630,315
383543,751,232,334
383559,348,629,309
383575,370,258,282
383591,352,493,274
383607,400,580,279
383622,385,434,319
383638,384,586,284
383654,400,562,284
383670,410,555,296
383686,490,563,277
383702,434,586,279
383717,485,522,303
383733,467,470,298
383749,400,282,274
383765,514,527,297
383781,392,224,251
383796,351,674,298
383812,589,550,318
383828,362,670,329
383844,335,378,305
383860,355,574,258
383876,718,532,276
383891,306,548,313
383907,485,506,284
383923,502,575,312
383939,509,420,290
383955,498,640,279
383971,507,588,264
383986,508,548,287
384002,504,604,277
384018,547,605,308
384034,363,627,315
384050,356,213,287
384065,396,628,334
384081,344,185,292
384097,391,657,320
384113,488,240,314
384129,504,533,310
384145,550,356,343
384160,517,229,318
384176,538,346,384
384192,553,277,354
384208,526,527,327
384224,450,320,319
384239,368,544,323
384255,334,466,284
384271,365,496,306
384287,447,652,310
384303,514,642,321
384318,480,632,307
384334,436,465,301
384350,385,121,326
384366,444,542,297
384382,437,203,280
384398,486,337,292
384413,457,465,322
384429,514,621,290
384445,525,560,345
384461,517,614,290
384477,483,345,286
384492,509,572,302
384508,518,489,263
384524,523,408,298
384540,522,636,329
384556,494,240,328
384572,501,503,327
384587,505,636,309
384603,509,640,304
384619,508,477,320
384635,445,613,288
384651,486,577,306
384666,465,583,314
384682,498,568,324
384698,494,612,299
384714,500,541,323
384730,510,521,309
384746,495,550,333
384761,507,478,314
384777,515,589,296
384793,510,554,311
384809,514,606,323
384825,511,351,330
384840,512,642,295
384856,511,628,276
384872,510,662,322
384888,513,510,320
384904,508,598,322
384920,501,177,341
384935,501,348,322
384951,509,547,334
384967,512,557,320
384983,511,319,313
384999,514,432,338
385014,469,534,325
385030,492,381,323
385046,505,631,315
385062,506,374,301
385078,509,319,328
385094,512,314,324
385109,512,432,359
385125,507,239,336
385141,515,568,338
385157,504,695,354
385173,516,639,334
385188,507,442,316
385204,518,407,311
385220,499,677,349
385236,514,420,307
385252,386,143,327
385268,351,384,304
385283,352,671,311
385299,335,636,308
385315,343,637,307
385331,382,231,327
385347,434,561,325
385362,468,602,312
385378,418,294,293
385394,361,579,313
385410,340,614,316
385426,343,199,327
385442,323,613,303
385457,362,451,298
385473,407,598,330
385489,356,662,298
385505,388,181,326
385521,331,520,322
385536,355,394,352
385552,378,439,312
385568,307,634,295
385584,373,154,294
385600,373,276,317
385616,381,643,315
385631,355,622,306
385647,371,333,317
385663,460,610,325
385679,499,259,343
385695,383,643,313
385710,400,347,306
385726,364,364,317
385742,370,340,298
385758,376,507,289
385774,392,505,329
385790,503,443,339
385805,437,549,336
385821,379,563,341
385837,372,146,352
385853,458,562,325
385869,404,501,317
385885,394,303,326
385900,383,441,334
385916,371,344,349
385932,366,560,366
385948,388,679,334
385964,450,377,290
385979,392,252,296
385995,357,548,324
386011,424,285,305
386027,581,617,312
386043,340,283,332
386059,454,563,318
386074,389,561,315
386090,370,633,289
386106,356,636,316
386122,354,285,315
386138,356,429,328
386153,352,548,321
386169,353,589,322
386185,370,387,316
386201,352,289,335
386217,369,625,351
386233,379,452,313
386248,367,538,302
386264,365,541,342
386280,353,295,331
386296,362,415,356
386312,355,387,330
386327,403,645,337
386343,364,309,350
386359,366,661,340
386375,388,549,354
386391,363,683,339
386407,363,526,358
386422,354,460,357
386438,365,342,324
386454,325,412,313
386470,349,202,299
386486,413,264,346
386501,352,134,341
386517,374,393,331
386533,350,647,368
386549,356,535,342
386565,370,677,337
386581,349,635,341
386596,369,629,344
386612,332,445,333
386628,359,571,357
386644,365,594,351
386660,370,565,311
386675,343,566,356
386691,368,558,360
386707,357,522,345
386723,447,548,359
390445,626,336
390703,483,341
390713,412,335,348
390723,404,574,348
390733,321,679,333
390743,676,294,353
390753,449,273,344
390763,300,436,348
390773,317,177,366
390783,322,188,351
390793,422,662,337
390803,347,359,345
390813,306,123,350
390823,521,605,346
390833,519,666,336
390846,300,262,330
390856,338,356,359
390867,305,528,354
390877,323,304,341
390887,336,441,335
390897,476,408,342
390907,526,229,344
390917,378,602,366
390927,317,669,365
390937,306,152,353
390947,291,133,365
390957,330,212,352
390967,317,564,350
390977,343,643,362
390987,334,447,346
390997,341,315,350
391007,347,580,345
391017,335,371,348
391027,328,631,352
391037,336,480,345
391047,461,250,345
391057,366,602,339
391067,381,600,354
391077,690,431,353
391087,606,445,361
391097,312,682,362
391107,340,354,374
391117,506,620,355
391127,311,308,349
391137,399,682,348
391147,313,606,342
391157,317,550,344
391167,678,370,347
391177,333,282,354
391187,338,286,342
391197,326,278,352
391207,318,659,368
391217,333,378,357
391227,305,502,345
391237,308,176,346
391247,345,190,359
391262,314,483,353
391278,574,480,350
391294,352,659,367
391310,341,656,366
391326,670,543,357
391341,380,629,372
391357,530,671,366
391373,295,210,362
391389,377,256,355
391405,353,647,350
391421,682,634,362
391436,317,681,353
391452,347,651,360
391468,331,335,366
391484,339,219,359
391500,482,650,349
391515,699,653,365
391531,343,553,351
391547,385,645,340
391563,309,325,364
391579,359,531,355
391595,338,646,351
391610,323,661,359
391626,562,630,358
391642,321,448,353
391658,387,283,361
391674,336,250,352
391689,403,498,375
391705,320,442,357
391721,328,656,349
391737,350,349,369
391753,457,619,361
391769,367,527,362
391784,320,328,359
391800,336,652,356
391816,322,326,364
391832,429,356,356
391848,335,177,363
391863,336,528,378
391879,339,316,360
391895,390,637,363
391911,335,232,366
391927,339,628,363
391943,528,424,370
391958,353,628,363
391974,357,652,377
391990,451,299,363
392006,496,301,379
392022,496,431,376
392037,515,669,365
392053,516,631,376
392069,474,642,385
392085,365,638,381
392101,495,262,378
392117,501,659,371
392132,517,444,376
392148,504,291,390
392164,509,668,395
392180,511,656,397
392196,511,655,410
392211,513,526,397
392227,511,648,390
392243,511,588,394
392259,513,153,396
392275,514,472,394
392291,507,366,413
392306,512,654,411
392322,499,284,382
392338,504,649,402
392354,510,474,397
392370,511,444,403
392385,465,603,404
392401,504,518,406
392417,510,621,416
392433,507,272,412
392449,512,553,394
392465,510,536,406
392480,500,580,397
392496,504,581,399
392512,512,301,413
392528,513,262,418
392544,516,404,413
392559,510,481,400
392575,510,636,409
392591,514,640,400
392607,512,439,419
392623,500,550,402
392639,503,266,411
392654,506,648,408
392670,514,450,423
392686,513,326,418
392702,501,359,425
392718,486,415,419
392733,506,451,418
392749,509,662,410
392765,509,444,429
392781,514,360,419
392797,511,654,422
392813,513,316,423
392828,513,241,410
392844,503,440,410
392860,513,517,416
392876,494,611,413
392892,522,641,422
392908,508,504,425
392923,507,377,428
392939,502,367,436
392955,512,647,420
392971,502,456,386
392987,508,219,415
393002,511,259,400
393018,484,305,413
393034,352,604,412
393050,322,657,428
393066,408,563,439
393082,367,461,431
393097,435,644,417
393113,506,655,420
393129,507,427,435
393145,514,600,444
393161,506,645,424
393176,499,534,442
393192,503,641,415
393208,515,560,439
393224,505,658,432
393240,514,251,436
393256,513,626,437
393271,509,310,437
393287,514,576,443
393303,506,383,436
393319,500,674,434
393335,508,358,443
393350,509,409,437
393366,483,278,446
393382,462,638,450
393398,452,507,447
393414,559,644,433
393430,458,344,434
393445,347,314,440
393461,500,578,434
393477,532,202,441
393493,356,633,451
393509,786,562,436
393524,307,202,448
393540,466,648,443
393556,501,400,440
393572,513,474,457
393588,513,672,453
393603,471,424,436
393619,510,631,445
393635,514,571,437
393651,517,661,442
393667,490,619,436
393683,514,620,435
393698,509,533,444
393714,488,409,450
393730,509,555,464
393746,514,507,451
393762,465,429,440
393778,497,618,447
393793,512,530,464
393809,514,364,457
393825,512,444,428
393841,509,593,435
393857,480,356,458
393872,509,271,445
393888,513,246,439
393904,466,427,444
393920,395,348,442
393936,353,648,444
393952,358,269,445
393967,336,477,448
393983,335,652,452
393999,322,648,452
394015,348,409,453
394031,336,226,464
394046,624,637,459
394062,544,382,455
394078,319,650,450
394094,320,298,447
394110,450,556,453
394126,371,672,453
394141,334,653,452
394157,448,335,449
394173,503,356,451
394189,514,600,452
394205,509,609,445
394220,514,295,444
394236,514,265,443
394252,378,526,448
394268,352,321,459
394284,320,631,457
394300,318,654,463
394315,320,340,465
394331,314,503,462
394347,304,492,456
394363,366,282,460
394379,305,527,458
394394,336,643,455
394410,352,632,451
394426,381,433,449
394442,416,226,446
394458,488,581,448
394474,514,586,451
394489,507,631,446
394505,520,635,451
394521,490,630,451
394537,503,655,452
394553,509,179,454
394569,513,594,455
394584,511,566,456
394600,509,580,457
394616,511,275,460
394632,512,620,463
394648,515,285,463
394663,513,413,456
394679,437,670,455
394695,349,654,454
394711,522,491,449
394727,519,630,458
394743,685,651,452
394758,323,592,456
394774,397,416,457
394790,496,495,445
394806,369,475,454
394822,483,518,460
394837,488,510,449
394853,507,291,460
394869,514,323,474
394885,515,591,456
394901,521,263,460
394917,504,265,463
394932,499,519,459
394948,395,645,457
394964,411,434,464
394980,399,635,477
394996,334,597,471
395011,505,485,451
395027,454,338,451
395043,315,599,450
395059,387,249,450
395075,356,447,457
395091,338,272,451
395106,531,370,466
395122,358,417,467
395138,361,456,463
395154,363,592,463
395170,338,451,450
395185,360,609,458
395201,393,593,457
395217,437,609,459
395233,420,622,465
395249,458,314,454
395265,487,529,504
395280,512,473,518
395296,508,602,498
395312,514,440,475
395328,495,404,474
395344,468,599,467
395360,407,335,458
395375,454,603,485
395391,360,636,496
395407,489,277,490
395423,454,434,460
395439,499,555,461
395454,403,561,440
395470,421,554,478
395486,376,487,509
395502,488,556,524
395518,507,589,514
395534,513,316,513
395549,505,597,512
395565,490,568,513
395581,528,210,509
395597,409,557,504
395613,405,549,497
395628,458,569,498
395644,444,532,497
395660,406,543,503
395676,280,574,504
395692,605,571,507
395707,579,244,510
395723,364,219,512
395739,368,317,511
395755,327,348,509
395771,540,592,508
395787,374,234,507
395802,299,541,506
395818,603,598,506
395834,366,610,505
395850,330,418,505
395866,350,559,505
395881,334,630,505
395897,369,650,503
395913,321,600,502
395929,355,358,502
395945,578,615,503
395961,326,394,503
395976,633,510,501
395992,509,622,500
396008,537,314,502
396024,326,359,502
396040,326,617,502
396055,333,156,505
396071,628,581,506
396087,536,611,506
396103,334,595,507
396119,333,615,505
396135,446,480,506
396150,309,603,503
396166,332,644,502
396182,333,434,501
396198,689,393,501
396214,381,664,499
396229,353,391,501
396245,324,543,500
396261,366,627,500
396277,445,654,500
396293,342,621,499
396309,417,413,500
396324,542,368,497
396340,381,542,497
396356,358,329,496
396372,336,278,494
396388,713,611,496
396403,324,400,495
396419,337,415,494
396435,405,191,494
396451,719,624,494
396467,336,426,494
396482,318,554,494
396498,321,458,494
396514,473,406,491
396530,319,489,495
396546,558,634,492
396562,519,539,492
396577,509,373,493
396593,435,548,494
396609,350,245,494
396625,376,645,494
396641,326,257,498
396657,344,619,498
396672,555,649,495
396688,343,586,487
396704,322,191,485
396720,359,617,479
396736,359,627,487
396751,378,409,482
396767,359,624,477
396783,371,306,485
396799,659,272,485
396815,344,237,485
396831,306,221,487
396846,317,318,486
396862,413,656,487
396878,335,274,488
396894,328,504,484
396910,309,468,482
396925,681,567,481
396941,333,417,481
396957,412,357,476
396973,645,614,478
396989,557,316,485
397005,357,590,479
397020,357,600,477
397036,318,478,479
397052,431,471,482
397068,689,434,484
397084,319,679,481
397099,467,567,480
397115,368,626,478
397131,351,322,483
397147,427,215,481
397163,316,361,483
397179,702,390,487
397194,632,226,487
397210,333,295,484
397226,590,306,483
397242,478,285,483
397258,678,660,480
397273,308,254,479
397289,482,300,473
397305,562,648,476
397321,661,557,481
397337,554,654,478
397353,328,244,478
397368,324,599,478
397384,594,685,478
397400,536,535,478
397416,326,234,478
397432,438,561,479
397447,559,559,479
397463,428,243,475
397479,626,322,478
397495,369,695,479
397511,530,361,478
397527,412,664,477
397542,336,318,477
397558,712,406,476
397574,351,183,476
397590,325,642,478
397606,675,324,478
397621,661,649,477
397637,644,356,477
397653,544,607,475
397669,325,646,474
397685,539,647,473
397700,325,228,484
397716,533,657,486
397732,319,475,485
397748,637,350,484
397764,343,655,479
397780,323,641,477
397795,714,331,475
397811,521,461,478
397827,411,592,479
397843,459,330,480
397859,341,651,479
397874,375,318,478
397890,349,652,477
397906,301,648,475
397922,341,437,477
397938,357,501,478
397954,609,243,478
397969,344,660,477
397985,338,188,480
398001,422,675,480
398017,344,275,476
398033,439,207,474
398048,538,405,474
398064,342,656,475
398080,487,626,474
398096,350,283,474
398112,373,285,477
398128,313,250,474
398143,326,515,482
398159,331,626,482
398175,320,680,479
398191,592,216,483
398207,292,582,477
398222,631,622,477
398238,315,332,479
398254,298,133,478
398270,516,658,480
398286,292,461,477
398302,503,477,478
398317,500,662,478
398333,344,520,477
398349,633,272,481
398365,481,309,486
398381,372,666,480
398396,332,604,478
398412,634,239,478
398428,375,647,476
398444,292,123,473
398460,342,604,475
398476,314,652,476
398491,390,299,475
398507,378,655,476
398523,382,690,476
398539,497,474,476
398555,300,261,477
398570,477,677,481
398586,333,391,486
398602,372,301,487
398618,347,240,475
398634,367,443,474
398650,336,549,465
398665,356,261,469
398681,459,646,488
398697,500,355,486
398713,499,668,488
398729,507,481,485
398745,496,226,497
398760,489,613,501
398776,460,613,491
398792,511,603,481
398808,415,483,491
398824,353,389,489
398839,398,589,489
398855,344,555,482
398871,352,545,479
