276059,512,512,493
276069,509,513,486
276079,511,512,505
276089,504,513,491
276101,508,512,500
276112,502,512,490
276123,505,513,490
276134,508,508,495
276144,512,485,499
276155,512,507,482
276165,512,511,487
276175,512,510,491
276185,512,513,497
276195,509,512,479
276205,504,496,490
276215,499,508,489
276228,503,511,472
276244,503,512,468
276260,511,504,486
276276,512,509,493
276291,497,511,470
276307,509,512,484
276323,503,507,490
276339,509,513,482
276355,510,512,479
276370,509,495,469
276386,491,494,455
276402,484,493,453
276418,466,494,451
276434,481,488,459
276450,453,509,442
276465,464,504,447
276481,465,472,438
276497,479,507,451
276513,466,423,461
276529,481,487,444
276544,475,479,472
276560,475,496,447
276576,483,510,453
276592,491,502,441
276608,470,501,433
276624,481,510,450
276639,484,479,459
276655,492,481,457
276671,510,508,463
276687,509,512,475
276703,494,510,476
276718,503,505,465
276734,509,509,469
276750,504,510,481
276766,499,510,477
276782,500,512,485
276798,509,505,476
276813,502,494,494
276829,508,508,490
276845,506,509,506
276861,506,510,503
276877,500,512,496
276892,509,510,497
276908,509,511,470
276924,512,512,469
276940,506,512,482
276956,512,482,491
276972,512,507,490
276987,500,510,481
277003,505,507,472
277019,501,486,472
277035,510,508,468
277051,510,510,479
277066,505,511,461
277082,500,479,492
277098,506,505,487
277114,497,510,474
277130,504,513,482
277146,503,508,469
277161,507,511,484
277177,511,511,479
277193,505,512,463
277209,497,472,464
277225,509,507,489
277241,498,503,492
277256,509,509,470
277272,510,510,485
277288,503,511,483
277304,509,512,478
277320,511,511,485
277335,513,508,494
277351,510,512,496
277367,512,513,491
277383,513,495,487
277399,507,508,502
277415,508,502,512
277430,511,510,506
277446,508,510,496
277462,512,512,495
277478,512,512,503
277494,510,502,504
277509,512,510,497
277525,497,511,504
277541,511,482,508
277557,512,508,499
277573,511,510,498
277589,512,511,500
277604,513,511,500
277620,494,512,500
277636,497,512,491
277652,502,512,497
277668,510,512,504
277684,511,512,502
277699,507,512,487
277715,498,512,497
277731,499,513,482
277747,502,512,469
277763,490,477,463
277778,494,493,445
277794,481,438,422
277810,481,454,440
277826,487,496,436
277842,463,481,453
277858,449,505,423
277873,474,471,416
277889,462,466,421
277905,452,478,460
277921,460,471,442
277937,457,450,430
277952,483,460,461
277968,463,503,448
277984,477,469,435
278000,416,478,419
278016,431,407,414
278032,459,456,423
278047,445,415,416
278063,421,464,411
278079,449,413,404
278095,428,414,410
278111,447,499,416
278126,462,429,415
278142,433,427,416
278158,461,423,419
278174,430,424,417
278190,436,412,416
278206,427,376,416
278221,440,384,411
278237,429,442,417
278253,451,406,423
278269,434,402,416
278285,458,453,411
278300,459,491,418
278316,461,445,418
278332,437,437,419
278348,447,481,414
278364,451,436,425
278380,443,483,421
278395,444,479,416
278411,437,407,409
278427,456,496,429
278443,474,496,431
278459,457,488,444
278474,476,453,437
278490,467,461,424
278506,440,439,426
278522,464,423,432
278538,452,471,428
278554,463,436,445
278569,476,443,427
278585,459,474,418
278601,488,448,431
278617,469,500,428
278633,468,476,429
278648,459,499,442
278664,463,477,424
278680,465,494,432
278696,465,502,463
278712,484,458,448
278728,474,503,460
278743,478,481,452
278759,463,407,427
278775,449,466,431
278791,471,472,433
278807,472,504,432
278822,477,513,423
278838,464,514,424
278854,485,510,434
278870,445,491,423
278886,480,455,444
278902,470,505,432
278917,465,412,444
278933,457,433,415
278949,474,443,432
278965,463,501,444
278981,467,502,436
278996,487,506,462
279012,447,467,428
279028,460,504,418
279044,465,442,425
279060,454,441,414
279076,460,463,454
279091,434,431,419
279107,447,502,434
279123,461,509,431
279139,480,499,422
279155,452,455,431
279170,448,482,433
279186,443,426,421
279202,454,484,420
279218,444,450,429
279234,427,468,424
279250,462,433,445
279265,445,443,421
279281,444,491,417
279297,481,509,421
279313,441,428,421
279329,471,482,420
279344,441,435,441
279360,446,442,420
279376,469,413,422
279392,454,413,418
279408,429,403,418
279424,450,411,417
279439,428,433,415
279455,438,460,423
279471,467,421,429
279487,431,456,427
279503,441,414,414
279518,414,433,419
279534,436,479,416
279550,443,444,420
279566,427,448,414
279582,462,434,412
279598,442,416,417
279613,454,475,416
279629,458,464,430
279645,461,420,423
279661,440,445,411
279677,456,443,415
279692,451,394,417
279708,478,406,415
279724,435,389,411
279740,444,428,415
279756,463,450,421
279772,450,425,421
279787,443,487,431
279803,443,500,418
279819,464,502,423
279835,445,434,418
279851,430,433,421
279866,424,442,439
279882,449,415,419
279898,473,380,414
279914,437,441,415
279930,423,404,420
279946,442,411,412
279961,445,480,413
279977,431,466,418
279993,415,444,429
280009,432,430,417
280025,419,434,411
280040,447,422,420
280056,446,426,416
280072,462,441,403
280088,438,420,424
280104,419,404,412
280120,429,379,411
280135,427,430,405
280151,412,395,416
280167,401,438,408
280183,421,465,409
280199,418,388,404
280214,457,404,423
280230,445,408,403
280246,421,413,426
280262,402,407,413
280278,409,433,415
280294,434,403,409
280309,422,406,409
280325,458,406,413
280341,423,400,412
280357,412,404,414
280373,419,406,420
280388,431,422,415
280404,410,416,411
280420,446,419,414
280436,448,399,409
280452,410,409,418
280468,435,399,411
280483,414,384,412
280499,436,389,413
280515,413,382,409
280531,430,417,404
280547,475,490,409
280562,429,426,416
280578,453,427,407
280594,445,407,428
280610,446,442,426
280626,459,443,412
280642,454,443,415
280657,469,458,424
280673,487,481,432
280689,447,433,416
280705,481,485,442
280721,438,436,430
280736,479,488,442
280752,413,475,426
280768,430,419,420
280784,462,452,414
280800,412,464,416
280816,450,437,410
280831,446,420,412
280847,426,385,419
280863,423,397,406
280879,423,404,407
280895,438,418,417
280910,468,424,425
280926,431,398,416
280942,435,426,413
280958,428,406,409
280974,445,411,409
280990,432,465,428
281005,466,409,420
281021,446,465,421
281037,440,448,422
281053,421,406,410
281069,444,476,411
281084,432,472,410
281100,436,476,411
281116,435,447,407
281132,424,467,412
281148,442,404,418
281164,450,418,414
281179,455,425,418
281195,417,421,417
281211,446,453,423
281227,450,496,412
281243,452,429,416
281259,454,501,416
281274,434,459,415
281290,465,488,426
281306,491,466,418
281322,454,447,411
281338,431,414,426
281353,452,473,429
281369,478,485,435
281385,455,457,433
281401,459,451,428
281417,451,468,431
281433,448,470,439
281448,438,489,422
281464,438,446,426
281480,439,420,418
281496,433,479,429
281512,422,406,418
281527,410,421,410
281543,405,415,410
281559,402,390,398
281575,415,394,410
281591,444,404,408
281607,426,422,410
281622,425,415,404
281638,433,407,414
281654,409,398,417
281670,412,409,417
281686,414,394,410
281701,401,418,418
281717,408,422,414
281733,414,400,410
281749,409,401,418
281765,412,406,421
281781,408,390,409
281796,446,387,418
281812,424,439,413
281828,404,424,412
281844,443,430,412
281860,412,411,425
281875,409,397,408
281891,402,427,411
281907,396,412,413
281923,408,417,419
281939,417,398,415
281955,437,415,410
281970,408,397,412
281986,403,394,409
282002,414,403,417
282018,401,395,412
282034,410,408,409
282049,393,436,420
282065,418,385,416
282081,404,382,415
282097,425,408,412
282113,406,385,413
282129,407,392,416
282144,409,391,415
282160,393,388,413
282176,418,386,410
282192,413,416,420
282208,410,394,405
282223,396,389,405
282239,400,405,403
282255,403,395,405
282271,434,377,404
282287,409,400,409
282303,404,409,419
282318,418,398,409
282334,417,403,409
282350,414,398,413
282366,434,405,409
282382,420,434,404
282397,444,397,404
282413,420,383,417
282429,439,436,409
282445,399,399,412
282461,394,408,406
282477,418,397,415
282492,400,398,405
282508,426,383,407
282524,407,410,404
282540,425,376,416
282556,414,394,402
282571,415,406,414
282587,403,384,416
282603,418,389,407
282619,403,404,411
282635,397,410,406
282651,406,396,413
282666,406,427,418
282682,414,400,421
282698,423,448,414
282714,403,411,411
282730,405,405,410
282745,463,393,409
282761,419,385,413
282777,424,387,410
282793,416,406,412
282809,404,425,410
282825,414,394,413
282840,436,405,414
282856,425,390,410
282872,398,394,411
282888,421,406,410
282904,442,420,421
282919,409,424,411
282935,448,450,412
282951,413,431,404
282967,432,414,412
282983,423,398,419
282999,449,477,417
283014,453,423,412
283030,458,412,415
283046,466,470,421
283062,482,495,462
283078,509,507,471
283094,489,511,452
283109,507,512,454
283125,503,473,474
283141,506,478,469
283157,507,507,467
283173,497,511,473
283188,495,502,481
283204,503,512,467
283220,507,510,469
283236,501,511,478
283252,501,507,479
283268,509,508,481
283283,501,503,486
283299,490,511,493
283315,497,512,482
283331,496,513,495
283347,508,512,501
283362,502,503,474
283378,506,510,496
283394,502,511,500
283410,500,507,498
283426,494,512,491
283442,510,512,484
283457,495,512,498
283473,509,505,498
283489,511,511,488
283505,511,509,495
283521,513,510,490
283537,508,513,502
283552,506,513,501
283568,507,512,499
283584,503,513,494
283600,508,512,495
283616,508,513,504
283631,511,512,502
283647,510,507,503
283663,512,512,501
283679,507,512,486
283695,509,512,496
283711,506,507,483
283726,511,511,490
283742,508,512,462
283758,486,509,454
283774,481,460,462
283790,493,505,459
283805,499,509,461
283821,502,480,468
283837,495,503,481
283853,479,510,440
283869,478,502,440
283885,462,508,449
283900,480,446,427
283916,430,479,419
283932,422,469,411
283948,424,449,411
283964,439,480,410
283980,459,452,423
283995,452,424,424
284011,455,442,402
284027,442,450,414
284043,425,451,401
284059,442,389,403
284074,445,425,416
284090,433,387,415
284106,471,422,429
284122,461,411,405
284138,433,416,405
284154,419,411,514
284169,421,405,400
284185,439,443,408
284201,419,404,416
284217,426,426,411
284233,419,452,407
284248,429,385,412
284264,443,436,398
284280,451,437,400
284296,472,441,405
284312,446,406,407
284328,421,469,418
284343,453,408,408
284359,418,429,423
284375,426,466,410
284391,413,441,409
284407,437,466,414
284422,431,424,430
284438,443,443,422
284454,432,438,430
284470,421,452,426
284486,441,454,431
284502,450,450,404
284517,447,498,429
284533,453,434,432
284549,453,450,461
284565,471,505,439
284581,473,505,436
284596,474,407,434
284612,492,496,470
284628,499,497,450
284644,505,512,462
284660,512,493,472
284676,509,508,471
284691,504,510,487
284707,503,510,491
284723,500,509,500
284739,510,513,499
284755,493,511,483
284770,507,508,501
284786,510,505,501
284802,511,512,494
284818,505,513,495
284834,512,512,492
284850,511,513,511
284865,513,510,491
284881,513,513,490
284897,512,512,498
284913,509,513,507
284929,512,513,500
284945,512,513,504
284960,508,513,492
284976,512,513,479
284992,504,513,489
285008,512,505,491
285024,509,509,501
285039,509,513,500
285055,500,503,488
285071,509,509,500
285087,512,512,479
285103,513,499,505
285119,510,494,484
285134,507,509,499
285150,497,510,493
285166,510,508,498
285182,512,511,488
285198,510,506,502
285213,493,506,483
285229,507,510,499
285245,505,507,485
285261,511,510,490
285277,508,505,509
285293,511,510,505
285308,511,500,507
285324,513,510,504
285340,508,511,496
285356,511,514,495
285372,510,504,506
285388,509,511,488
285403,506,511,503
285419,511,503,499
285435,508,509,496
285451,495,472,450
285467,467,482,427
285482,465,490,428
285498,456,449,420
285514,441,404,409
285530,437,424,413
285546,435,398,405
285562,437,481,419
285577,459,400,418
285593,472,467,418
285609,454,455,419
285625,430,460,404
285641,439,450,406
285656,463,450,398
285672,421,415,404
285688,444,421,421
285704,433,421,411
285720,444,390,404
285736,436,413,411
285751,404,409,409
285767,457,400,402
285783,439,438,406
285799,434,473,407
285815,425,457,417
285830,433,401,401
285846,448,419,407
285862,438,443,427
285878,457,424,404
285894,474,478,400
285910,448,453,416
285925,445,445,415
731078,338,375,335
731088,298,355,345
731098,281,341,323
731109,332,358,319
731120,319,368,328
731134,325,355,314
731144,339,361,317
731154,331,332,321
731165,322,346,328
731175,334,349,340
731186,323,347,338
731196,333,367,340
731206,327,360,336
731216,346,344,331
731226,302,346,323
731236,294,337,380
731246,339,348,324
731256,361,379,310
731266,302,355,315
731276,320,356,334
731286,320,353,373
731296,325,350,384
731306,294,352,353
731316,332,363,330
731326,331,379,332
731336,338,364,318
731346,296,343,346
731356,342,346,339
731366,298,341,321
731376,284,332,339
731386,331,359,322
731396,305,351,327
731406,301,348,333
731416,275,346,340
731426,267,360,322
731436,318,356,320
731446,306,340,318
731456,292,363,333
731466,311,335,328
731476,275,347,322
731486,333,359,331
731496,329,369,325
731506,309,367,331
731516,349,365,334
731526,319,359,339
731536,323,371,336
731546,305,379,324
731556,307,381,339
731566,304,377,336
731576,312,351,319
731586,291,362,323
731596,291,357,323
731606,292,341,324
731616,302,330,332
731628,294,326,348
731644,286,339,333
731660,283,379,333
731676,314,348,354
731692,297,356,335
731708,312,355,337
731723,293,324,348
731739,300,324,346
731755,334,323,339
731771,293,348,318
731787,304,381,405
731802,328,357,330
731818,336,380,348
731834,314,356,334
731850,319,354,356
731866,289,364,322
731882,366,349,337
731897,330,375,314
731913,308,383,338
731929,318,337,348
731945,288,340,345
731961,275,327,345
731977,282,338,323
731992,307,340,329
732008,315,326,321
732024,298,336,319
732040,301,339,342
732056,300,343,354
732071,270,344,337
732087,308,366,343
732103,304,360,348
732119,368,388,347
732135,306,394,356
732151,326,375,349
732166,332,392,358
732182,331,400,352
732198,342,404,330
732214,362,375,362
732230,369,380,355
732245,353,349,345
732261,314,356,338
732277,343,372,342
732293,298,361,334
732309,310,345,334
732325,315,380,346
732340,323,310,357
732356,348,355,339
732372,339,362,335
732388,318,354,336
732404,292,329,342
732419,284,338,346
732435,316,386,346
732451,335,367,350
732467,319,365,340
732483,301,333,346
732499,337,345,337
732514,332,338,325
732530,328,365,363
732546,311,343,350
732562,311,355,349
732578,370,342,354
732593,328,342,338
732609,356,319,335
732625,344,368,332
732641,339,344,346
732657,332,328,345
732673,322,333,341
732688,313,318,336
732704,297,323,346
732720,290,320,341
732736,304,318,351
732752,317,347,350
732767,317,335,356
732783,311,333,336
732799,317,340,333
732815,309,342,344
732831,342,339,350
732847,332,339,350
732862,353,332,341
732878,360,359,335
732894,362,371,363
732910,365,356,355
732926,410,392,374
732941,418,436,407
732957,430,414,430
732973,407,383,357
732989,351,352,339
733005,344,323,339
733021,336,340,335
733036,347,351,338
733052,313,321,342
733068,320,334,338
733084,322,309,333
733100,331,337,328
733115,330,340,338
733131,333,330,351
733147,323,336,336
733163,319,341,353
733179,374,351,326
733195,358,393,338
733210,404,366,329
733226,383,405,383
733242,388,397,387
733258,432,422,410
733274,412,439,407
733289,395,452,383
733305,377,389,362
733321,355,374,378
733337,368,360,364
733353,391,377,364
733369,282,362,363
733384,356,361,346
733400,352,338,334
733416,344,291,328
733432,355,323,342
733448,311,325,352
733464,318,315,344
733479,311,316,347
733495,301,294,345
733511,306,328,340
733527,328,325,327
733543,347,324,335
733558,312,341,332
733574,312,324,354
733590,332,331,343
733606,327,331,325
733622,324,364,335
733638,309,350,336
733653,322,331,333
733669,338,357,333
733685,354,314,337
733701,323,295,328
733717,339,292,358
733732,313,299,336
733748,310,294,338
733764,311,304,365
733780,330,316,339
733796,320,296,346
733812,310,343,338
733827,326,310,332
733843,334,315,327
733859,299,320,318
733875,304,303,327
733891,297,328,339
733906,323,286,341
733922,320,296,301
733938,305,299,325
733954,313,297,275
733970,292,317,326
733986,328,315,324
734001,309,319,355
734017,347,296,341
734033,310,311,376
734049,343,307,330
734065,314,333,350
734155,332,324,345
734165,329,305,338
734177,304,321,343
734188,349,297,346
734198,313,312,338
734209,290,302,359
734267,290,304,325
734277,326,335,346
734287,283,299,320
734297,305,326,323
734307,306,292,334
734317,293,290,332
734327,267,343,342
734337,328,361,330
734347,324,326,333
734357,336,370,326
734367,319,368,337
734377,371,324,333
734387,322,328,354
734397,340,330,346
734407,349,329,350
734417,323,340,357
734428,372,314,349
734444,312,339,341
734460,316,339,345
734476,319,337,335
734492,338,305,339
734508,317,287,346
734523,332,334,326
734539,296,329,328
734928,0
734938,284,325,348
734948,321,301,337
734959,319,333,315
734970,289,311,324
734980,282,347,347
734990,296,312,348
735000,322,316,328
735010,294,321,350
735020,306,327,341
735030,324,351,334
735040,358,311,316
735050,322,330,309
735060,370,321,335
735070,330,310,326
735080,320,274,337
735090,272,335,342
735100,298,304,343
735110,318,336,328
735120,293,314,313
735130,325,295,320
735140,317,315,336
735150,281,265,347
735160,310,292,333
735171,317,305,331
735181,302,322,329
735191,323,310,351
735201,271,327,328
735211,305,333,328
735221,311,343,340
735231,308,361,338
735241,328,360,340
735251,360,377,337
735261,310,387,362
735271,332,324,333
735281,346,365,342
735291,295,326,326
735301,291,324,333
735311,291,315,341
735321,291,358,338
735331,309,309,350
735341,308,323,338
735351,347,309,354
735361,302,326,347
735371,314,336,342
735381,320,310,339
735391,405,422,401
735401,484,493,454
735411,509,509,480
735421,502,498,480
735431,482,518,507
735441,495,515,456
735451,504,519,441
735461,509,504,456
735473,511,498,489
735488,506,508,454
735504,501,513,460
735520,476,508,407
735536,493,511,448
735552,462,508,436
735567,430,458,386
735583,393,372,370
735599,343,394,377
735615,347,410,368
735631,392,351,366
735647,360,382,360
735662,321,365,329
735678,289,297,329
735694,304,291,334
735710,284,289,342
735726,267,308,345
735741,296,306,328
735757,295,323,339
735773,274,315,324
735789,290,342,347
735805,301,332,322
735821,313,354,318
735836,300,345,328
735852,299,359,345
735868,361,363,334
735884,339,351,337
735900,330,358,338
735915,339,360,330
735931,301,343,343
735947,319,378,324
735963,315,351,316
735979,312,325,327
735995,313,353,331
736010,323,319,321
736026,317,350,316
736042,333,338,333
736058,295,314,343
736074,328,307,327
736089,293,325,335
736105,344,376,337
736121,320,311,333
736137,353,326,337
736153,359,318,349
736169,399,380,347
736184,410,403,347
736200,445,472,381
736216,468,513,409
736232,481,504,414
736248,465,474,469
736263,477,423,390
736279,397,452,393
736295,426,476,392
736311,354,340,348
736327,293,379,336
736343,294,353,330
736358,293,393,329
736374,322,361,336
736390,298,362,333
736406,311,318,317
736422,294,305,343
736438,276,327,321
736453,265,322,329
736469,291,299,333
736485,291,335,330
736501,304,306,341
736517,288,331,363
736532,298,340,344
736548,275,324,338
736564,320,372,337
736580,293,373,335
736596,283,376,335
736612,326,405,335
736627,330,367,341
736643,311,349,346
736659,230,368,341
736675,319,338,332
736691,316,334,338
736706,341,345,323
736722,322,336,325
736738,295,336,329
736754,297,329,339
736770,326,353,336
736786,287,314,323
736801,260,324,360
736817,308,321,356
736833,274,333,331
736849,314,348,318
736865,291,342,334
736880,291,347,307
736896,312,336,335
736912,331,382,332
736928,290,350,309
736944,311,326,347
736960,278,306,346
736975,313,322,356
736991,309,301,349
737007,330,324,358
737023,327,381,349
737039,313,359,353
737054,285,287,322
737070,290,358,327
737086,321,334,325
737102,268,313,331
737118,300,319,326
737134,288,312,325
737149,293,323,329
737165,293,341,342
737181,285,342,332
737197,317,307,342
737213,292,307,327
737228,261,322,335
737244,274,361,325
737260,264,345,328
737276,265,314,331
737292,313,345,331
737308,301,313,339
737323,333,323,361
737339,351,305,323
737355,299,340,339
737371,288,340,332
737387,273,344,328
737402,236,336,338
737418,282,334,334
737434,274,322,340
737450,312,334,337
737466,313,328,331
737571,317,330,339
737581,291,324,326
737591,327,329,338
737601,305,337,332
737611,327,339,339
737621,328,356,364
737631,353,341,356
737641,379,358,355
737651,461,452,404
737661,495,505,483
737671,494,515,452
737681,507,503,517
737691,483,510,502
737701,476,515,496
737764,513,493,468
737774,514,496,499
737784,509,508,478
737794,512,521,463
737804,488,504,468
737814,386,495,421
737824,348,355,374
737834,383,420,360
737844,435,481,414
737854,410,434,392
737864,349,404,369
737877,294,319,332
737893,308,311,341
737909,311,281,331
737925,312,280,338
737940,334,317,342
737956,318,349,338
737972,318,300,352
737988,344,336,351
738004,333,350,354
738065,308,333,342
738075,352,371,357
738085,321,351,353
738096,301,345,351
738107,325,351,351
738118,282,297,355
738128,310,316,356
738139,310,333,351
738149,357,294,352
738162,306,328,353
738178,336,305,345
738193,323,317,354
738209,299,326,355
738225,319,298,349
738241,335,286,363
738257,301,291,355
738273,334,285,345
738288,299,314,356
738304,311,306,361
738320,293,309,333
738336,290,310,374
738352,281,256,344
738368,334,280,353
738383,271,329,374
738399,278,324,350
738415,278,309,352
738431,314,344,354
738447,319,346,358
738462,321,348,342
738478,318,318,373
738494,301,311,359
738510,264,312,358
738526,298,309,350
738542,298,318,356
738557,256,301,343
738573,238,313,352
738589,263,306,366
738605,271,293,348
738621,308,258,354
738636,303,294,354
738652,288,293,358
738668,283,303,347
738684,289,319,340
738700,282,310,362
738716,336,320,359
738731,342,348,348
738747,315,352,356
738763,317,341,352
738779,306,356,358
738795,282,337,350
738811,303,373,368
738826,287,322,369
738842,297,296,348
738858,304,314,356
738874,266,341,347
738890,302,313,359
738905,303,343,348
738921,307,329,342
738937,293,311,342
738953,316,296,360
738969,293,300,352
738985,281,305,378
739000,311,310,360
739016,298,355,348
739032,281,323,363
739048,289,309,345
739064,286,307,367
739079,309,290,352
739095,274,302,382
739111,280,291,363
739127,241,294,362
739143,285,286,343
739159,287,275,351
739174,299,282,349
739190,331,301,341
739206,289,303,345
739222,305,313,351
739238,279,272,362
739254,261,260,352
739269,260,317,358
739285,283,290,335
739301,281,280,348
739317,261,312,354
739333,308,301,356
739348,291,299,353
739364,301,299,359
739380,295,302,371
739396,321,339,364
739412,289,311,357
739428,349,385,357
739443,309,341,354
739459,319,324,352
739475,352,334,340
739491,348,397,359
739507,346,419,369
739522,349,377,362
739538,369,358,354
739554,312,361,344
739570,298,298,347
739586,314,341,357
739602,265,291,359
739617,355,311,353
739633,301,333,336
739649,283,340,347
739665,307,357,346
739681,292,340,357
739696,275,327,361
739712,300,346,371
739728,340,333,344
739744,307,332,345
739760,302,315,356
739776,280,325,336
739791,272,342,362
739807,295,307,373
739823,289,310,344
739839,295,313,357
739855,261,334,351
739870,314,310,349
739886,339,339,368
739902,341,340,370
739918,365,349,354
739934,301,292,347
739950,312,269,348
739965,276,273,350
739981,264,306,345
739997,265,278,345
740013,288,277,352
740029,269,336,360
740044,285,259,346
740060,311,270,338
740076,305,328,330
740092,298,340,345
740108,305,313,342
740124,290,276,334
740139,306,354,361
740155,310,358,344
740171,343,327,360
740187,311,335,353
740203,353,342,364
740218,328,350,351
740234,311,316,350
740250,328,306,344
740266,342,273,357
740282,358,299,353
740298,338,281,345
740313,351,302,356
740329,317,266,340
740345,292,339,352
740361,282,319,345
740377,330,286,353
740393,290,307,347
740408,292,277,344
740424,310,273,371
740440,306,308,344
740456,350,326,360
740472,315,347,361
740487,362,273,327
740503,326,289,326
740519,258,325,312
740535,285,290,333
740551,274,302,355
740567,278,357,351
740582,287,320,331
740598,306,327,362
740614,318,308,350
740666,338,295,374
740676,329,307,350
740686,335,307,348
740696,333,283,359
740706,323,293,350
740716,292,287,347
740726,275,283,344
740741,270,264,349
740756,302,257,341
740772,292,276,350
740788,271,296,347
740864,284,257,347
740874,264,304,333
740884,261,297,340
740894,258,335,353
740904,283,276,354
740914,291,299,350
740924,300,316,341
741260,
741270,335,286,343
741280,4,354,357
741290,338,297,360
741300,309,243,352
741310,295,282,334
741320,285,301,365
741330,289,312,341
741340,303,326,335
741350,273,307,334
741360,305,324,359
741370,320,292,351
741380,272,326,342
741390,297,321,340
741400,296,273,338
741410,328,268,349
741420,313,296,373
741430,320,299,306
741441,301,325,310
741451,303,347,351
741461,321,325,341
741471,331,311,372
741481,289,458,367
741491,297,284,360
741501,293,361,338
741511,342,356,354
741521,369,334,344
741531,329,352,343
741541,285,288,336
741551,289,283,347
741561,285,267,351
741571,303,292,359
741581,320,283,362
741591,284,290,337
741601,305,258,351
741611,263,307,359
741621,322,301,334
741631,302,333,315
741641,298,340,310
741651,356,322,334
741661,296,323,321
741671,332,381,327
741681,333,334,343
741691,342,350,329
741701,326,335,343
741711,355,370,334
741721,393,357,328
741731,297,329,341
741741,319,355,325
741751,304,321,329
741761,305,304,310
741771,297,333,309
741781,308,320,316
741791,308,292,320
741801,342,305,338
741816,310,315,323
741832,296,288,313
741848,271,225,298
741864,259,311,309
741880,291,265,321
741895,278,271,331
741911,287,250,306
741927,262,285,331
741943,280,287,250
741959,283,241,319
741975,263,304,350
741990,283,272,315
742006,264,270,328
742022,300,325,302
742038,306,309,321
742054,294,352,321
742069,340,311,311
742085,285,315,297
742101,305,335,323
742117,280,274,309
742133,286,274,316
742149,259,296,326
742164,304,265,311
742180,290,247,312
742196,270,278,313
742212,290,305,317
742228,290,287,329
742243,301,306,336
742259,293,276,299
742275,274,285,308
742291,331,288,316
742307,322,320,310
742323,333,281,328
742338,317,336,313
742354,322,348,322
742370,334,326,313
742386,357,343,305
742402,320,346,324
742417,365,357,323
742433,342,347,319
742449,320,342,296
742465,294,303,323
742481,268,282,316
742497,311,309,304
742512,308,312,327
742528,345,322,307
742544,345,319,316
742560,302,306,323
742576,280,292,300
742591,293,321,331
742607,288,279,309
742623,294,319,311
742639,298,303,324
742655,303,281,339
742671,285,264,311
742686,293,282,259
742702,292,271,296
742718,266,272,304
742734,281,251,296
742750,269,321,333
742765,281,328,289
742781,303,312,301
742797,284,314,296
742813,281,350,321
742829,341,318,317
742845,284,340,316
742860,297,299,314
742876,273,311,305
742892,290,335,318
742908,298,321,279
742924,291,329,307
742939,289,320,320
742955,316,289,339
742971,270,324,328
742987,288,327,318
743003,308,299,311
743019,325,319,319
743034,317,306,306
743050,357,367,297
743066,284,323,328
743082,307,309,333
743098,317,316,324
743113,323,372,313
743129,334,391,309
743145,340,433,336
743161,329,349,313
743177,291,357,310
743193,264,320,333
743208,359,347,320
743224,285,362,324
743240,316,316,320
743256,305,325,303
743272,325,350,303
743288,365,352,305
743303,314,313,321
743319,301,294,322
743335,303,344,322
743351,375,342,321
743367,348,324,335
743382,371,380,324
743398,411,349,365
743414,372,439,339
743430,383,463,363
743446,442,441,371
743462,379,417,451
743477,411,406,418
743493,423,397,395
743509,392,363,387
743525,376,356,356
743541,371,387,315
743556,322,353,308
743572,290,337,318
743588,253,270,318
743604,278,296,324
743620,320,324,305
743636,289,306,324
743651,301,348,291
743667,286,324,284
743683,302,349,313
743699,309,297,303
743715,297,318,329
743731,320,317,309
743746,296,307,313
743762,323,314,304
743778,323,330,330
743794,294,304,310
743810,331,339,314
743825,344,320,316
743841,308,338,327
743857,336,346,309
743873,294,302,322
743889,350,315,326
743905,302,337,300
743973,314,349,316
743983,352,375,305
743993,306,313,309
744003,298,320,310
744013,325,347,308
744023,320,302,304
744033,327,318,315
744043,313,334,321
744053,307,296,317
744063,301,312,323
744079,324,313,305
744094,298,290,340
744110,310,284,349
744126,305,307,323
744142,299,311,353
744158,272,242,278
744173,302,275,329
744189,323,267,296
744205,275,283,302
744221,305,305,326
744237,324,304,339
744253,318,296,323
744268,329,326,314
744284,276,255,312
744300,311,278,302
744316,320,313,320
744332,297,286,342
744347,319,305,338
744363,310,287,313
744379,307,279,320
744395,320,303,338
744411,332,310,319
744427,284,303,322
744442,287,279,324
744458,257,293,317
744532,288,312,310
744542,302,295,332
744552,305,304,314
744562,327,342,321
744572,342,307,339
744582,287,353,342
744592,341,295,331
744602,307,308,330
744612,353,277,325
744622,332,297,318
745460,,321
745470,341,310,309
745480,305,340,318
745490,289,303,378
745500,312,284,324
745510,308,340,327
745520,356,340,342
745530,357,349,358
745540,376,337,370
745550,370,321,337
745560,384,317,349
745570,343,305,339
745581,379,346,329
745591,330,339,341
745601,330,336,333
745612,324,307,323
745622,308,305,339
745632,303,301,357
745642,323,303,336
745652,333,316,337
745662,311,294,317
745672,331,332,326
745682,414,398,362
745692,467,490,376
745702,493,486,389
745712,475,420,411
745722,473,499,470
745732,482,479,400
745742,485,509,385
745752,408,447,362
745762,456,424,404
745772,418,408,364
745782,438,498,408
745792,435,506,418
745802,449,419,397
745812,405,373,391
745822,390,398,332
745832,332,353,321
745842,280,328,337
745852,314,338,333
745862,308,351,323
745872,374,339,355
745882,288,294,326
745892,291,322,335
745902,249,314,343
745912,265,318,329
745922,315,306,333
745932,302,305,336
745942,287,312,315
745952,266,327,329
745962,273,324,310
745972,296,345,316
745982,300,325,324
745993,335,308,341
746009,289,328,341
746024,312,343,358
746040,345,356,339
746056,325,369,334
746072,303,285,364
746088,285,303,333
746103,334,302,322
746119,309,310,330
746135,278,283,328
746151,330,327,327
746167,304,340,334
746183,302,303,339
746198,284,288,335
746214,301,289,331
746230,278,325,329
746246,269,264,322
746262,254,294,341
746277,267,251,343
746293,259,242,327
746309,268,290,347
746325,238,271,344
746341,249,272,324
746357,287,308,340
746372,273,256,345
746388,247,308,326
746404,254,307,348
746420,300,273,351
746436,290,300,344
746452,297,317,356
746467,245,263,334
746483,225,264,338
746499,272,307,341
746515,292,331,342
746531,267,299,328
746546,270,280,324
746562,268,270,340
746578,261,287,341
746594,277,309,336
746610,269,272,332
746626,268,294,331
746641,252,293,332
746657,324,326,335
746673,293,316,339
746689,294,346,338
746705,283,345,344
746720,303,343,342
746736,306,351,338
746752,359,347,345
746768,274,307,348
746784,281,356,332
746800,264,289,338
746815,308,323,329
746831,294,317,347
746847,319,298,316
746863,326,302,334
746879,280,302,322
746894,297,335,317
746910,278,319,336
746926,274,274,331
746942,254,308,328
746958,330,312,350
746974,297,328,330
746989,337,362,348
747005,273,314,316
747021,291,307,308
747037,286,314,359
747053,295,306,320
747068,265,315,321
747084,268,342,313
747100,306,346,325
747116,280,320,320
747132,295,327,336
747148,307,323,335
747163,320,326,327
747179,291,340,322
747195,354,318,316
747211,246,304,328
747227,327,334,325
747242,324,290,317
747258,298,309,313
747274,256,324,310
747290,282,272,314
747306,252,290,324
747322,284,320,335
747337,275,331,309
747353,280,333,309
747369,281,311,322
747385,302,304,310
747401,269,336,329
747416,248,339,325
747432,277,327,317
747448,314,310,326
747464,253,325,324
747480,290,362,328
747496,276,334,358
747511,285,288,322
747527,300,352,326
747543,304,359,326
747559,312,346,325
747575,314,331,328
747590,295,329,346
747606,296,293,328
747622,280,318,344
747638,274,311,342
747654,291,308,323
747670,346,399,324
747685,354,327,345
747701,366,375,400
747717,444,492,425
747733,476,472,402
747749,453,518,489
747764,394,474,433
747780,416,468,409
747796,440,489,397
747812,502,491,470
747828,478,486,454
747844,480,517,443
747859,493,507,417
747875,482,504,410
747891,525,512,437
747907,473,508,411
747923,416,434,433
747939,321,354,381
747954,352,351,348
747970,337,327,352
747986,323,381,305
748002,283,364,329
748018,308,351,326
748120,306,368,314
748130,294,343,340
748141,307,357,314
748152,262,327,328
748163,260,327,327
748173,252,349,318
748183,241,320,334
748193,280,310,333
748203,338,304,318
748213,346,354,328
748223,285,351,342
748233,304,354,342
748243,272,369,332
748253,275,337,324
748263,278,328,324
748273,344,381,321
748287,316,344,331
748302,277,320,344
748318,287,330,343
748334,265,357,334
748350,287,329,327
748366,286,346,324
748381,243,338,325
748397,285,350,318
748413,291,341,347
748589,297,318,328
748599,289,316,348
748609,297,329,350
748619,335,319,343
748629,288,340,311
748639,279,347,364
748649,252,317,350
748659,270,309,324
748669,283,331,344
749224,
749234,94,347,335
749245,361,341,333
749255,283,368,332
749268,329,336,343
749278,287,314,318
749288,308,344,352
749298,290,359,343
749308,340,352,335
749318,294,297,331
749328,242,276,322
749338,260,324,320
749348,305,317,338
749358,300,334,343
749368,262,321,334
749378,325,356,326
749388,300,317,339
749398,279,358,346
749408,320,343,359
749418,363,330,365
749428,372,452,378
749438,378,403,384
749448,408,415,353
749458,401,364,380
749468,392,446,362
749478,373,403,361
749488,339,395,356
749498,333,362,344
749508,317,341,352
749518,317,309,342
749528,303,340,343
749538,266,327,361
749548,313,337,356
749558,313,350,347
749568,312,343,351
749578,345,336,352
749588,276,351,348
749598,293,365,346
749608,272,362,348
749618,320,344,354
749628,346,339,342
749638,329,309,339
749648,313,335,351
749658,319,351,358
749668,383,362,379
749678,367,344,367
749688,375,376,353
749698,381,353,346
749708,334,368,338
749718,326,380,352
749728,310,345,348
749738,300,313,342
749748,318,320,333
749758,315,290,344
749774,266,320,361
749789,288,289,338
749805,324,298,368
749821,321,325,354
749837,247,298,337
749853,284,316,355
749868,281,307,351
749884,299,330,360
749900,317,367,368
749916,350,329,393
749932,379,395,404
749948,383,452,443
749963,435,417,419
749979,447,477,449
749995,411,486,459
750011,463,507,476
750027,439,382,458
750042,435,490,474
750058,410,374,394
750074,338,381,364
750090,295,359,359
750106,285,292,356
750122,284,297,375
750137,311,342,362
750153,283,346,351
750169,272,328,355
750185,263,293,367
750201,274,329,358
750216,288,311,368
750232,282,318,380
750248,257,340,364
750264,254,320,367
750280,301,258,368
750296,257,305,360
750311,296,337,366
750327,280,334,361
750343,287,360,352
750359,309,332,381
750375,313,354,365
750390,330,357,374
750406,320,363,357
750422,321,349,373
750438,316,345,376
750454,303,363,355
750470,316,345,357
750485,321,342,359
750501,272,311,372
750517,252,322,371
750533,301,325,352
750549,256,313,359
750564,300,355,366
750580,295,310,357
750596,270,277,355
750612,259,308,387
750628,283,341,357
750644,277,319,370
750659,318,315,338
750675,276,329,409
750691,268,346,359
750707,251,338,352
750723,256,331,340
750738,233,327,330
750754,236,361,360
750770,320,334,343
750786,282,329,353
750802,280,346,351
750818,293,334,343
750833,260,307,350
750849,272,297,346
750865,254,312,339
750881,249,316,339
750897,240,328,338
750912,259,299,336
750928,259,310,356
750944,266,330,349
750960,272,317,320
750976,282,347,353
750992,264,353,338
751007,302,336,326
751023,320,325,329
751039,325,327,331
751055,300,325,325
751071,303,377,348
751087,315,367,349
751102,354,363,348
751118,311,335,338
751134,265,310,333
751150,269,308,347
751166,245,306,327
751181,256,290,325
751197,217,301,316
751213,244,288,303
751229,274,307,326
751245,269,298,338
751261,274,334,344
751276,299,323,326
751292,261,308,336
751308,288,325,348
751324,252,355,345
751340,374,467,424
751355,469,508,427
751371,504,507,477
751387,504,512,462
751403,511,508,446
751419,473,509,476
751435,504,506,514
751450,500,516,488
751466,510,506,501
751482,505,515,505
751498,498,523,500
751514,519,514,508
751530,496,512,512
751545,505,519,494
751561,494,505,497
751577,518,509,500
751593,472,517,495
751609,499,491,468
751624,518,509,477
751640,500,516,445
751656,421,474,383
751672,411,439,372
751705,439,486,428
751715,440,463,463
751725,394,479,389
751735,447,464,415
751751,406,423,383
751767,322,380,336
751783,284,386,332
751799,264,380,320
751814,296,408,333
751883,297,370,326
751893,330,365,339
751903,288,372,328
751913,287,345,309
751923,301,390,320
752022,285,349,333
752032,272,358,330
752042,279,358,339
752052,282,369,339
752062,276,373,327
752072,257,350,342
752082,298,335,345
752093,253,356,323
752104,263,335,313
752115,272,334,326
752127,265,358,319
752137,278,325,312
752147,279,333,318
752157,282,360,281
752167,292,352,342
752177,303,366,341
752187,337,367,358
752197,301,354,338
752207,302,347,325
752217,291,361,315
752227,310,380,298
752241,368,393,316
752257,370,356,300
752273,277,374,329
752289,264,337,319
752305,238,331,325
752321,237,327,326
752336,291,344,329
752352,267,332,308
752368,270,341,328
752384,244,354,332
752400,298,356,308
752415,258,350,320
752431,274,352,325
752447,272,326,312
752463,286,315,293
752479,298,332,318
752495,269,359,322
752510,273,355,323
752526,320,369,315
752542,345,352,310
752558,284,345,342
752574,310,350,309
752589,260,354,320
752605,293,346,312
752621,242,334,335
752637,256,363,331
752653,300,366,304
752669,291,373,313
752684,277,355,314
752700,284,348,308
752716,285,344,331
752732,275,338,333
752748,278,340,299
752763,264,343,312
752779,292,373,317
752795,282,368,318
752811,287,358,307
752827,312,337,335
752843,272,330,310
752858,298,348,274
752874,296,328,328
752890,288,348,304
752906,272,363,320
752922,270,360,305
752937,279,348,340
752953,300,376,316
752969,320,366,299
752985,323,368,313
753001,300,371,290
753017,283,346,296
753032,267,346,311
753048,246,323,307
753064,306,356,321
753080,274,339,331
753096,303,332,307
753112,286,331,300
753127,265,349,313
753143,277,364,311
753159,277,337,294
753175,260,363,310
753191,313,356,306
753206,308,349,305
753222,300,378,311
753238,296,395,324
753254,321,394,304
753270,329,383,311
753286,313,380,341
753301,310,406,313
753317,363,393,323
753333,298,366,308
753349,289,369,294
753365,309,380,304
753381,361,366,317
753397,340,374,301
753412,328,334,301
753428,311,323,317
753444,266,313,309
753460,261,347,300
753475,296,339,294
753491,291,331,284
753507,320,348,282
753523,330,362,340
753539,371,368,333
753555,344,352,297
753570,360,355,287
753586,328,389,313
753602,358,393,291
753618,343,352,300
753634,327,395,351
753649,344,386,330
753665,357,385,327
753681,328,398,314
753697,341,370,320
753713,385,404,317
753729,271,343,313
753744,277,309,301
753760,252,336,321
753776,312,352,303
753792,289,341,305
753808,261,333,293
753823,283,322,307
753839,277,345,319
753855,278,334,308
753871,260,357,289
753887,261,363,304
753903,277,334,292
753918,280,340,282
753934,289,350,318
753950,287,343,321
753966,320,342,329
753982,319,333,318
753997,285,364,326
754013,273,344,291
754029,295,363,301
754045,269,378,307
754061,287,370,332
754077,286,381,299
754092,285,355,310
754108,313,365,298
754124,262,338,288
754140,292,333,268
754156,263,338,301
754171,261,361,301
754187,254,342,313
754203,234,330,294
754219,269,348,305
754235,306,386,299
754251,276,357,299
754266,255,346,310
754282,253,330,310
754298,265,362,305
754314,233,348,310
754330,227,346,272
754345,229,355,297
754361,232,350,302
754377,252,355,299
754393,280,388,304
754409,264,390,320
754425,290,375,299
754440,301,340,308
754456,280,321,325
754472,283,318,293
754488,217,324,291
754504,275,368,284
754519,259,362,304
754535,249,343,301
754551,267,333,274
754838,243,366,301
754848,227,363,279
754858,265,342,286
754868,254,352,281
754878,251,348,280
754888,295,340,288
754898,287,338,259
754908,237,379,262
754918,258,359,278
754928,229,369,311
754938,268,365,297
754949,266,371,268
754959,286,360,280
754969,281,396,286
754979,266,343,254
755043,227,335,293
755054,283,350,283
755064,252,354,272
755074,233,328,280
755084,296,345,277
755094,273,359,275
755104,271,358,273
755114,263,338,265
755124,250,358,283
755134,341,408,312
755146,365,412,323
755156,424,445,363
755167,397,482,358
755177,442,482,442
755187,500,512,464
755197,507,515,467
755207,511,517,458
755217,503,507,500
755227,494,511,507
755237,490,513,476
755247,507,512,481
755257,508,514,506
755267,492,508,513
755277,466,492,452
755287,507,506,475
755297,497,453,459
755307,465,497,447
755317,516,514,450
755327,491,514,411
755337,471,503,400
755347,458,509,443
755357,497,507,376
755367,499,454,438
755377,512,508,453
755387,508,478,388
755397,486,507,379
755407,519,481,418
755417,482,507,464
755427,486,498,491
755437,508,508,486
755447,513,508,499
755457,514,507,510
755469,504,468,502
755485,493,507,479
755500,485,509,451
755516,465,490,472
755532,359,431,406
755548,309,402,335
755564,310,370,305
755579,313,379,285
755595,300,368,310
755611,268,374,274
755627,251,363,277
755643,275,333,316
755659,286,360,320
755674,369,474,355
755690,417,505,464
755706,440,494,397
755722,372,438,340
755738,326,439,340
755753,355,438,285
755769,418,514,366
755785,472,487,428
755801,443,433,407
755817,487,497,409
755833,483,503,464
755848,416,452,402
755864,392,424,353
755880,305,407,300
755896,308,368,256
755912,245,315,272
755927,220,352,272
755943,322,355,272
755959,256,359,245
755975,250,331,246
755991,220,321,268
756007,226,349,268
756022,244,328,256
756038,238,334,274
756054,225,342,286
756070,221,370,264
756086,242,362,266
756102,244,348,271
756117,279,373,316
756133,262,364,308
756149,264,385,282
756165,267,389,273
756181,305,373,309
756196,274,416,296
756212,246,381,263
756228,314,343,270
756244,270,351,304
756260,272,366,289
756276,264,337,295
756291,259,353,278
756307,240,334,279
756323,222,353,258
756339,219,320,307
756355,216,328,299
756370,271,342,290
756386,258,337,343
756402,261,361,294
756418,277,350,293
756434,266,365,283
756450,239,325,292
756465,215,338,306
756677,231,344,276
756687,224,362,284
756697,240,367,290
756707,245,382,307
756717,259,353,282
756727,262,385,282
756737,252,370,287
756747,254,365,279
756757,234,375,301
756767,226,322,327
756777,206,311,304
756787,248,331,301
756797,258,335,305
756807,235,351,289
756819,216,346,292
756829,225,317,285
756839,234,345,282
756849,216,357,278
756859,211,343,289
756869,257,328,282
756879,247,351,259
756889,249,343,279
756899,232,323,276
756909,249,331,265
756919,225,338,276
756929,249,372,262
756939,309,388,270
756949,285,373,281
756959,289,349,301
756969,229,337,264
756979,260,347,292
756989,268,315,287
756999,277,322,273
757009,258,328,301
757019,234,332,287
757035,266,302,272
757051,253,329,283
757066,234,310,281
757082,231,318,276
757098,267,296,283
757114,249,333,293
757130,260,371,269
757146,248,360,267
757161,249,362,283
757177,238,330,305
757193,262,313,306
757209,278,370,301
757225,283,356,362
757240,365,385,286
757256,401,367,351
757272,355,402,296
757288,334,429,328
757304,300,407,287
757320,286,365,309
757335,304,330,288
757351,246,356,295
757367,206,331,297
757383,312,343,281
757399,328,349,306
757414,261,378,298
757430,332,345,282
757446,284,353,290
757462,290,365,314
757478,307,361,292
757494,279,357,304
757509,274,341,309
757525,260,346,291
757541,264,348,274
757557,227,353,260
757573,285,381,318
757589,311,399,370
757604,367,486,366
757620,393,457,404
757636,365,389,321
757652,294,358,296
757668,307,344,280
757683,313,327,275
757699,253,335,294
757715,257,344,274
757731,239,318,280
757747,253,343,260
757763,281,365,289
757778,228,350,293
757794,228,311,284
757810,309,385,306
757826,405,491,442
757842,489,501,452
757857,492,515,474
757873,501,488,479
757889,513,508,450
757905,513,515,464
757921,513,504,460
757937,511,513,490
757952,508,506,433
757968,508,508,457
757984,508,511,497
758000,512,512,511
758016,497,495,501
758031,534,501,479
758047,478,510,486
758063,398,437,385
758079,423,431,360
758095,368,388,351
758111,414,456,397
758126,354,418,344
758142,282,356,292
758158,260,341,291
758174,253,333,299
758190,242,337,294
758205,218,341,300
758221,237,340,292
758237,224,328,297
758253,276,355,276
758269,238,334,274
758285,239,375,296
758300,229,364,282
758316,262,338,302
758332,299,343,290
758348,251,325,302
758364,249,342,318
758379,224,334,277
758395,224,342,288
758411,272,362,298
758427,272,337,304
758443,292,350,311
758459,285,326,291
758474,226,327,283
758490,260,332,298
758506,296,344,309
758522,276,329,293
758538,270,367,302
758553,287,378,328
758569,269,343,292
758585,278,330,324
758601,241,336,294
758617,257,320,274
758633,298,335,291
758648,242,346,279
758664,254,351,281
758680,260,403,295
758696,239,348,305
758712,253,310,283
758728,269,354,284
758743,265,362,310
758759,265,363,291
758775,262,353,286
758791,224,304,302
758807,262,297,308
758822,259,308,305
758838,257,343,268
758854,218,325,307
758870,201,327,267
758886,240,353,271
758902,251,334,291
758917,236,347,273
758933,229,337,284
758949,236,343,283
758965,286,331,291
758981,210,349,289
758996,268,364,279
759012,271,343,324
759028,289,392,279
759044,308,368,292
759060,288,381,306
759076,288,377,317
759091,233,352,318
759107,209,335,291
759123,263,344,284
759139,237,333,286
759155,255,346,326
759170,245,336,275
759186,248,325,292
759202,261,366,297
759218,253,311,279
759234,238,316,302
759250,223,326,288
759265,263,326,316
759281,245,348,316
759297,294,391,316
759313,288,363,274
759329,230,354,305
759344,228,352,267
759360,227,325,300
759376,259,350,281
759392,219,320,272
759408,260,352,290
759424,286,344,286
759439,281,370,272
759455,249,362,278
759471,234,393,296
759487,263,363,300
759503,248,328,317
759518,209,318,283
759534,307,396,277
759550,300,346,310
759566,279,348,288
759582,237,303,303
759598,216,347,303
759613,269,368,333
759629,269,386,301
759645,276,391,338
759661,300,415,325
759735,377,401,308
759745,352,415,318
759755,308,362,327
759765,291,362,312
759775,313,400,303
759785,340,388,318
759795,294,412,339
759805,308,390,284
759815,268,388,299
759825,291,367,289
759835,232,368,289
759851,284,379,282
759867,273,331,269
759882,248,324,268
759898,268,358,278
759914,261,352,288
759987,268,333,318
759998,327,357,294
760008,259,404,320
760018,373,477,383
760028,472,492,456
760038,506,491,483
760048,508,511,406
760058,510,508,426
760068,507,519,392
760078,495,508,444
760088,499,510,476
760104,478,517,460
760120,503,515,470
760135,499,513,476
760514,3
760524,306,387,327
760534,257,383,329
760544,248,401,312
760554,327,375,292
760564,231,374,271
760574,194,340,285
760584,240,311,297
760594,270,313,296
760604,224,308,296
760614,215,329,301
760624,190,339,288
760634,219,332,282
760644,214,339,267
760654,243,340,270
760664,242,366,286
760674,276,367,277
760684,238,371,290
760694,238,373,299
760704,270,407,310
760714,320,383,297
760724,268,385,269
760734,230,347,292
760744,294,351,306
760754,258,343,306
760764,284,375,287
760774,269,351,287
760784,249,342,302
760794,266,343,266
760804,194,343,311
760814,232,331,288
760824,220,354,313
760834,234,342,301
760844,237,403,292
760854,256,346,278
760864,233,306,292
760874,206,302,276
760884,207,314,296
760894,213,339,287
760904,219,327,325
760914,263,323,298
760924,255,352,288
760934,223,364,304
760944,231,342,290
760954,242,351,314
760964,241,353,301
760974,276,372,316
760984,302,330,272
760994,222,324,311
761004,237,316,297
761014,266,340,301
761024,261,362,309
761034,214,330,302
761044,199,319,321
761054,197,304,304
761069,207,311,310
761085,220,317,316
761100,242,332,292
761116,253,339,299
761132,249,344,289
761148,261,335,289
761164,282,336,319
761179,310,358,312
761195,343,396,326
761211,304,364,300
761227,315,383,316
761243,304,363,298
761259,262,367,312
761274,256,331,298
761290,262,347,322
761306,256,353,310
761322,270,393,299
761338,238,388,294
761354,285,344,312
761369,334,349,299
761385,331,376,307
761401,265,340,309
761417,265,330,302
761433,342,347,316
761448,370,490,364
761464,462,515,462
761480,486,509,482
761496,508,504,473
761512,492,516,471
761528,504,513,449
761543,502,500,480
761559,512,517,523
761575,500,510,477
761591,515,507,503
761607,506,506,508
761622,508,509,494
761638,533,502,509
761654,489,506,512
761670,507,500,476
761686,501,498,387
761702,418,513,396
761717,441,506,380
761733,481,482,403
761749,330,416,364
761765,273,406,322
761781,277,389,329
761796,324,416,323
761812,349,454,371
761828,359,397,357
761844,370,401,338
761860,351,401,336
761876,388,408,408
761891,310,484,360
761907,439,479,377
761923,378,397,321
761939,377,385,338
761955,363,400,330
761971,298,361,321
761986,266,338,315
762002,321,346,313
762018,289,364,304
762034,316,356,298
762050,274,329,341
762065,282,325,306
762081,241,349,337
762097,281,308,317
762113,296,350,331
762129,304,341,332
762145,297,364,295
762160,274,327,310
762176,259,359,351
762192,300,375,329
762208,315,389,317
762224,376,374,357
762239,410,411,386
762255,448,492,439
762271,409,511,440
762287,448,507,450
762303,411,482,458
762319,460,456,446
762334,381,386,362
762350,299,356,340
762366,284,336,327
762382,288,339,332
762398,277,321,318
762413,239,323,323
762429,276,309,316
762445,220,329,331
762461,227,301,327
762477,258,326,330
762493,248,300,322
762508,285,328,334
762524,259,330,323
762540,254,318,330
762556,307,297,337
762572,294,330,337
762587,261,316,317
762603,260,343,326
762619,253,330,338
762635,269,379,342
762651,286,351,346
762667,319,321,311
762682,319,330,322
762698,291,326,301
762714,288,351,311
762730,306,322,320
762746,279,384,321
762761,272,323,320
762777,324,309,313
762793,295,305,326
762809,284,308,325
762825,289,289,318
762841,271,314,317
762856,238,345,326
762872,287,350,325
762888,277,334,306
762904,316,314,327
762920,250,309,310
762935,300,302,321
762951,292,337,333
762967,262,336,304
762983,248,350,314
762999,292,340,343
763015,247,364,299
763030,288,335,301
763046,267,338,329
763062,290,335,322
763078,276,333,334
763094,258,349,322
763109,244,329,315
763125,227,301,314
763141,240,302,326
763157,197,324,312
763173,246,315,331
763238,247,302,306
763248,213,318,330
763258,232,300,329
763268,244,328,315
763278,253,314,313
763288,246,287,323
763298,265,309,328
763308,251,284,324
763318,226,331,310
763331,254,326,334
763347,295,349,319
763363,287,336,326
763378,327,337,342
763394,292,331,314
763410,276,296,318
763426,301,321,315
763442,238,300,321
763457,272,325,328
763473,270,311,322
763489,260,283,317
763505,260,327,307
763521,278,328,350
763537,272,342,319
763552,249,310,312
763679,257,305,312
763689,234,334,337
763699,315,346,310
763709,274,428,331
763719,299,390,377
763729,317,360,377
763739,384,422,366
763749,363,397,392
763759,391,458,385
763853,437,487,428
763863,393,458,419
763873,407,417,378
763883,368,485,412
763893,400,510,374
763903,428,418,402
763913,388,497,412
763923,314,505,437
763933,381,461,467
763946,430,507,440
763956,513,467,474
763966,514,497,462
763976,386,445,375
763986,366,399,359
763996,386,431,368
764006,421,408,389
764016,421,496,384
764026,427,511,477
764036,454,514,477
764046,499,512,470
764056,504,511,462
764066,508,496,486
764076,497,509,500
764086,503,513,509
764096,509,509,511
764106,508,502,489
764122,509,507,479
764138,425,508,424
764154,373,384,377
764169,295,346,335
764185,296,348,341
764201,334,347,314
764217,289,334,332
764233,288,353,314
764249,271,335,320
764264,360,310,301
764280,276,394,332
764296,427,490,385
764312,462,504,479
764328,501,508,511
764343,511,513,507
764359,513,516,574
764375,513,509,512
764391,507,508,410
764407,513,501,499
764423,511,507,509
764438,505,494,504
764454,511,507,506
764470,517,510,499
764486,509,514,509
764502,504,509,505
764517,505,516,494
764533,530,498,491
764549,516,477,480
764565,439,505,465
764581,419,513,434
764597,433,447,484
764612,441,503,440
764628,349,375,384
764644,332,389,358
764660,306,394,388
764676,354,402,349
764692,420,470,378
764707,387,495,371
764723,430,431,398
764739,420,499,427
764755,457,507,393
764771,406,474,449
764786,419,466,435
764802,451,506,419
764818,363,513,445
764834,341,424,377
764850,308,353,347
764866,277,327,345
764881,250,337,337
764897,313,352,341
764913,296,328,332
764929,264,340,321
764945,241,336,326
764960,277,322,319
764976,275,332,336
764992,312,332,326
765008,291,309,322
765024,257,336,318
765040,280,348,323
765055,274,365,339
765071,253,314,319
765087,265,302,309
765103,264,341,326
765119,279,305,304
765134,360,397,373
765150,409,473,428
765166,459,503,460
765182,458,503,446
765198,492,443,463
765214,456,501,473
765229,486,479,458
765245,396,435,469
765261,376,410,391
765277,352,388,353
765293,311,332,344
765308,330,359,350
765324,311,372,348
765340,273,279,345
765356,245,299,315
765372,233,312,310
765388,230,326,314
765403,250,317,333
765419,208,354,317
765435,216,327,301
765451,224,347,318
765467,215,334,318
765482,252,321,311
765498,308,350,308
765514,237,395,324
765530,297,354,303
765546,271,327,320
765562,267,355,331
765577,274,345,316
765593,249,325,312
765609,272,298,315
765625,248,308,294
765641,298,282,302
765657,249,295,307
765672,288,317,296
765688,254,298,306
765704,219,310,316
765720,253,291,303
765736,245,302,302
765751,272,316,319
765767,257,288,303
765783,260,316,329
765799,263,297,308
765815,274,320,305
765831,261,308,310
765846,246,298,344
765862,275,326,330
765878,236,293,324
765894,307,290,303
765910,286,371,318
765925,319,346,353
765941,293,322,311
765957,261,322,324
765973,294,244,314
765989,252,280,320
766005,257,341,307
766020,270,309,313
766036,257,274,320
766052,256,287,303
766068,245,284,309
766084,288,289,320
766100,410,403,383
766115,391,434,361
766131,415,463,408
766147,400,438,431
766163,393,372,451
766179,417,403,370
766194,471,497,428
766210,505,510,451
766226,478,498,449
766242,490,479,422
766258,405,431,407
766274,370,402,351
766289,276,324,333
766305,352,317,323
766321,315,313,304
766337,301,350,323
766353,304,296,303
766368,314,343,314
766384,388,327,309
766400,343,318,329
766416,316,346,336
766432,456,409,417
766448,508,503,491
766463,514,504,520
766479,512,509,528
766495,508,508,483
766511,510,515,536
766527,508,512,531
766559,504,499,530
766569,510,514,511
766579,509,507,493
766590,514,514,509
766606,500,488,507
766622,517,504,492
766637,492,512,499
766653,512,505,492
766669,449,503,456
766685,366,444,419
766701,383,480,405
766717,398,386,349
766732,417,357,351
766748,310,269,306
766764,305,242,317
766780,302,262,308
766796,304,303,331
766811,317,341,337
766827,296,305,314
766843,286,313,322
766873,278,304,306
766883,308,316,320
766893,299,284,326
766906,303,310,319
766922,307,288,328
766938,294,300,321
766996,313,334,319
767006,315,275,324
767016,329,311,296
767026,308,288,318
767036,283,309,299
767046,314,274,342
767056,276,316,306
767066,269,305,321
767080,276,307,299
767096,287,331,302
767112,301,344,326
767128,295,293,330
767144,301,268,326
767160,304,307,322
767175,356,282,313
767191,304,246,322
767207,315,282,349
767223,342,290,323
767239,273,272,337
767254,280,238,310
767270,291,235,331
767286,278,278,352
767302,269,290,310
767318,267,268,327
767334,300,284,312
767349,310,294,316
767365,302,268,339
767381,261,246,329
767397,303,242,323
767413,240,243,314
767428,281,295,300
767444,272,240,323
767460,312,252,304
767476,240,243,314
767492,242,205,301
767508,235,256,310
767523,264,321,333
767539,249,289,306
767555,287,297,306
767571,269,289,325
767587,235,272,305
767602,247,281,295
767618,269,294,310
767634,300,316,320
767650,320,312,323
767666,332,292,315
767682,312,279,322
767697,268,320,313
767713,257,252,311
767729,293,300,310
767745,308,256,308
767761,301,285,310
767776,281,302,308
767792,329,304,305
767808,301,301,313
767824,304,259,320
767840,307,298,319
767856,275,306,320
767871,339,324,300
767887,328,297,301
767903,352,320,345
767919,330,333,317
767935,298,339,297
767951,353,356,330
767966,415,383,407
767982,499,490,411
767998,504,516,456
768014,510,508,473
768030,503,514,506
768045,502,504,503
768061,515,508,497
768077,473,495,490
768093,492,508,500
768109,515,510,415
768125,465,524,429
768140,465,505,395
768156,462,479,403
768172,449,507,380
768188,325,393,363
768204,305,341,309
768219,306,317,371
768235,398,449,432
768251,462,493,447
768267,500,508,473
768283,505,494,464
768299,477,508,487
768314,493,509,459
768330,445,500,389
768346,497,513,392
768362,500,505,363
768378,493,510,379
768393,449,357,438
768409,351,313,331
768425,316,275,308
768441,256,274,304
768457,289,301,313
768473,311,251,301
768488,316,293,304
768504,297,271,314
768520,320,278,329
768536,291,292,316
768552,274,280,309
768567,280,262,325
768583,326,287,338
768599,325,283,325
768615,259,296,300
768631,324,269,393
768647,310,303,314
768662,355,362,324
768678,320,337,384
768694,372,350,394
768710,383,308,382
768726,339,376,391
768742,357,390,323
768757,317,239,338
768773,320,261,335
768789,275,265,311
768805,236,208,319
768821,216,257,318
768836,279,299,321
768852,295,315,316
768868,297,289,301
768884,261,300,309
768900,264,283,321
768916,216,261,324
768931,255,257,307
768947,260,249,307
768963,249,286,323
768979,247,329,308
768995,275,271,325
769010,265,255,313
769026,236,275,320
769042,294,304,299
769058,280,304,326
769074,288,293,331
769090,345,269,323
769105,278,276,327
769121,300,282,297
769137,238,293,302
769153,294,275,309
769169,293,258,321
769185,301,253,311
769200,290,269,320
769216,291,266,305
769232,290,269,293
769248,273,266,317
769264,278,282,322
769279,316,235,321
769295,288,260,297
769311,319,310,341
769327,322,309,327
769343,335,264,309
769359,270,311,302
769374,317,279,341
769390,333,346,350
769406,413,488,395
769422,459,502,463
769438,496,511,493
769453,504,517,485
769469,486,509,492
769485,507,508,481
769501,519,511,509
769517,514,511,487
769533,510,508,481
769548,507,509,501
769564,502,511,433
769580,438,515,366
769596,383,442,352
769612,412,503,389
769627,449,501,397
769643,506,513,432
769659,496,511,473
769675,503,512,479
769691,507,489,480
769707,511,509,504
769722,494,511,477
769738,485,509,497
769754,511,510,510
769770,515,512,502
769786,505,519,504
769801,483,510,508
769817,497,515,511
769833,497,509,497
769849,498,491,456
769865,344,386,364
769881,309,264,312
769896,279,283,307
769912,296,288,298
769928,308,271,320
769944,301,261,315
769960,341,210,302
769975,277,193,307
769991,250,278,328
770007,293,256,326
770023,317,275,370
770039,360,334,393
770055,335,306,389
770070,341,381,323
770086,419,364,348
770102,438,452,387
770143,502,482,418
770154,497,510,475
770165,486,458,470
770175,513,502,480
770186,503,508,490
770197,493,511,472
770213,437,442,460
770255,418,490,416
770265,410,392,424
770275,387,401,360
770285,350,333,385
770295,338,390,336
770308,335,310,288
770324,331,259,302
